12.0537 0.00787402 0.00787402 0.00000 0.00000 0.0236220 0.00000 0.00000 0.00000
12.0537 -0.00787402 -0.00787402 0.00000 0.00000 0.00000 -0.00787402 -0.00787402 -0.00787402
18.9762 -0.00787402 -0.0157480 -0.00787402 -0.00787402 -0.0393701 -0.0236220 -0.00787402 -0.00787402
18.9762 -0.0236220 0.00787402 0.00000 -0.0157480 -0.0157480 -0.0157480 0.00000 -0.00787402
27.0755 -0.00787402 0.0157480 0.00787402 0.00000 -0.0157480 -0.0157480 0.00000 0.00000
27.0755 -0.00787402 -0.00787402 -0.00787402 0.00787402 -0.0236220 0.00000 0.00000 0.00000
42.4690 -0.00787402 -0.0157480 -0.00787402 0.00000 -0.0314961 0.00000 0.00000 -0.0157480
42.4690 0.00000 -0.0236220 -0.0157480 0.00787402 -0.0314961 0.00000 0.00000 -0.00787402
49.8134 0.00000 -0.0157480 0.0157480 -0.0236220 0.00787402 0.00000 0.00000 -0.0157480
49.8134 -0.00787402 -0.0157480 -0.00787402 -0.00787402 0.0157480 -0.0157480 0.00000 -0.0236220
57.5520 0.00000 0.00000 -0.0157480 -0.00787402 -0.00787402 0.00000 -0.00787402 0.00000
57.5520 -0.0157480 0.00000 -0.0157480 -0.0157480 0.00787402 0.00787402 -0.0157480 -0.0157480
72.0977 -0.00787402 0.0157480 -0.00787402 0.00787402 -0.0314961 -0.0157480 -0.0157480 0.00787402
72.0977 0.00000 0.00000 0.00000 -0.00787402 -0.00787402 -0.0236220 -0.0157480 0.00787402
79.4952 0.00000 -0.0236220 0.00000 -0.00787402 0.00000 -0.0157480 -0.00787402 0.00000
79.4952 -0.00787402 -0.0314961 -0.00787402 -0.00787402 -0.0236220 -0.00787402 0.00000 0.00787402
87.1080 -0.00787402 -0.00787402 -0.0236220 -0.00787402 -0.0236220 0.00000 -0.0157480 -0.0157480
87.1080 -0.00787402 0.0157480 -0.00787402 -0.0157480 -0.0157480 0.00000 0.00787402 -0.0157480
106.993 -0.00787402 -0.00787402 0.00000 -0.00787402 0.00000 -0.0157480 -0.00787402 -0.00787402
106.993 0.00787402 -0.0157480 0.0157480 0.00000 -0.0472441 0.00000 -0.00787402 -0.00787402
117.175 -0.0157480 -0.00787402 0.00000 0.00787402 0.0551181 0.00000 -0.00787402 -0.00787402
117.175 0.00000 -0.00787402 -0.0157480 0.00000 0.0236220 -0.00787402 -0.00787402 0.00787402
139.317 0.00000 -0.0314961 -0.0157480 -0.0157480 0.00000 -0.00787402 0.00000 0.00000
139.317 0.00787402 -0.00787402 0.00000 -0.0157480 0.0157480 0.00000 -0.00787402 -0.0157480
147.228 0.00000 -0.00787402 0.00787402 0.00000 -0.0236220 0.00000 -0.0157480 -0.00787402
147.228 -0.00787402 -0.0157480 -0.0236220 -0.00787402 0.00787402 -0.00787402 -0.00787402 0.00787402
161.968 -0.00787402 0.0157480 -0.00787402 0.00000 0.00787402 0.00000 0.00000 0.00787402
161.968 0.00000 0.00787402 0.00000 0.00787402 -0.0157480 0.00000 -0.0236220 0.00000
169.491 0.00787402 -0.0157480 -0.0157480 0.00000 0.00000 -0.00787402 -0.00787402 0.00000
169.491 -0.00787402 0.00000 0.00000 -0.00787402 -0.0393701 -0.00787402 -0.0157480 -0.0157480
176.374 -0.0157480 -0.0157480 -0.0157480 -0.0157480 -0.00787402 0.00000 -0.0157480 0.00000
176.374 -0.0236220 -0.00787402 -0.00787402 -0.00787402 -0.0393701 0.00000 0.00000 0.00000
192.537 0.00000 -0.00787402 0.00000 0.00000 0.0314961 -0.00787402 -0.00787402 -0.00787402
192.537 -0.00787402 -0.00787402 0.00000 0.00787402 0.0236220 -0.00787402 0.00000 -0.00787402
214.675 -0.0236220 -0.00787402 0.00000 0.00787402 0.00787402 0.00000 -0.00787402 -0.0157480
214.675 -0.0157480 -0.00787402 0.00000 -0.0157480 -0.0393701 -0.00787402 0.00000 -0.00787402
237.045 0.00787402 -0.00787402 0.0157480 -0.00787402 -0.0393701 -0.00787402 0.0157480 -0.00787402
237.045 0.00787402 -0.0157480 -0.00787402 0.00000 -0.0314961 -0.00787402 0.00000 0.00000
257.687 0.00000 0.00000 0.00000 -0.0236220 0.0236220 0.00000 -0.0157480 0.00000
257.687 0.00000 0.00000 -0.0157480 -0.00787402 0.0472441 0.00787402 -0.0236220 -0.0236220
266.817 0.00000 -0.00787402 0.00000 -0.00787402 -0.00787402 -0.0236220 -0.00787402 -0.00787402
266.817 -0.00787402 -0.00787402 -0.00787402 -0.00787402 -0.00787402 0.00000 0.00000 0.00000
297.099 -0.0157480 -0.00787402 -0.0236220 -0.00787402 -0.0157480 -0.00787402 0.00000 0.00787402
297.099 0.00000 -0.00787402 -0.00787402 -0.00787402 0.0236220 -0.0157480 -0.00787402 -0.0314961
327.134 0.00000 -0.0236220 0.00787402 -0.0236220 -0.0393701 -0.0157480 -0.00787402 0.00000
327.134 0.00000 0.00000 -0.0157480 0.00787402 -0.0472441 0.00000 -0.00787402 -0.0157480
349.618 0.00000 0.00000 -0.0157480 0.00000 -0.00787402 -0.00787402 -0.00787402 0.00000
349.618 -0.00787402 -0.0157480 -0.00787402 -0.0236220 0.00000 -0.00787402 -0.0157480 0.00787402
357.518 -0.00787402 -0.0236220 -0.0157480 -0.0157480 -0.0157480 -0.0157480 -0.0157480 0.00787402
357.518 -0.00787402 0.00787402 0.00000 -0.0157480 0.0393701 0.00000 -0.00787402 0.00000
364.499 -0.0157480 -0.0157480 0.0314961 -0.0157480 -0.0157480 0.00000 0.00000 0.00000
364.499 -0.00787402 -0.0157480 0.00000 -0.00787402 -0.00787402 -0.00787402 0.00000 -0.00787402
387.435 -0.00787402 -0.00787402 -0.0314961 0.00000 -0.0157480 0.00000 0.00787402 -0.00787402
387.435 -0.00787402 -0.0157480 -0.0236220 -0.00787402 0.0393701 0.00000 -0.00787402 -0.0157480
401.939 0.00000 -0.0157480 0.00000 -0.00787402 -0.00787402 -0.0236220 0.00000 0.00787402
401.939 -0.00787402 -0.0157480 0.00787402 -0.0236220 0.00000 0.00000 0.00787402 0.00787402
417.018 -0.0157480 -0.0236220 -0.0157480 -0.00787402 0.0551181 0.00000 -0.00787402 -0.00787402
417.018 0.00787402 0.00000 -0.00787402 -0.0157480 -0.00787402 -0.00787402 -0.00787402 0.00000
425.016 0.00787402 -0.00787402 -0.00787402 -0.0157480 0.00000 0.00000 0.00000 -0.00787402
425.016 -0.00787402 -0.0157480 0.00787402 -0.0157480 0.0236220 -0.0157480 0.00000 0.00000
437.903 -0.00787402 -0.00787402 -0.0157480 -0.0157480 0.0157480 0.00000 -0.00787402 0.00000
437.903 -0.0157480 0.00000 -0.0236220 -0.00787402 -0.0551181 -0.00787402 -0.0236220 -0.00787402
455.125 -0.00787402 0.00787402 -0.0236220 0.00787402 -0.0393701 0.00000 -0.00787402 -0.0157480
455.125 -0.00787402 -0.0157480 0.00000 -0.00787402 -0.0472441 -0.00787402 -0.00787402 0.00000
461.974 0.00787402 -0.0236220 -0.0236220 0.00000 -0.0314961 -0.0157480 -0.0236220 -0.00787402
461.974 0.00787402 -0.0157480 -0.0157480 -0.0236220 -0.0551181 0.00000 0.00000 -0.0157480
484.586 0.00000 -0.00787402 0.00000 0.00000 -0.0157480 -0.00787402 -0.0157480 0.00000
484.586 0.00787402 -0.00787402 0.00787402 -0.00787402 0.0157480 -0.00787402 0.00000 -0.0157480
507.388 -0.0157480 -0.00787402 -0.00787402 -0.00787402 -0.0236220 -0.00787402 -0.00787402 0.00000
507.388 -0.0157480 -0.00787402 -0.0157480 0.00000 -0.0236220 -0.00787402 -0.00787402 -0.00787402
514.483 -0.00787402 -0.00787402 -0.00787402 0.00787402 -0.0708661 -0.0157480 0.00787402 0.00000
514.483 -0.00787402 -0.00787402 0.0236220 0.00787402 0.00000 -0.00787402 -0.0236220 -0.00787402
537.124 0.00000 -0.00787402 0.00000 -0.0236220 -0.0157480 0.00787402 0.00000 -0.00787402
537.124 -0.0157480 -0.0157480 -0.00787402 -0.00787402 0.0236220 -0.00787402 -0.00787402 -0.00787402
544.536 -0.0157480 0.00000 -0.0157480 -0.0314961 -0.0551181 0.00000 -0.0157480 -0.00787402
544.536 0.00000 -0.0157480 -0.0157480 -0.00787402 -0.00787402 0.00000 0.00000 0.00000
567.172 -0.0157480 -0.00787402 0.0157480 0.00000 0.0236220 -0.0157480 0.00000 -0.00787402
567.172 0.00000 -0.0157480 0.00000 -0.00787402 0.0236220 0.00787402 0.00000 0.00000
597.005 -0.00787402 0.00000 -0.00787402 0.00000 -0.0236220 -0.0157480 -0.0157480 0.00000
597.005 0.00787402 -0.00787402 -0.0236220 -0.00787402 -0.0314961 -0.0157480 -0.00787402 -0.0157480
605.068 0.00000 0.00000 0.00787402 0.00000 0.00000 0.00787402 -0.00787402 -0.0157480
605.068 0.00787402 0.00787402 0.00000 0.00000 0.0157480 0.00787402 0.00000 -0.00787402
612.026 0.00000 -0.0157480 -0.00787402 0.00787402 -0.00787402 -0.00787402 0.00000 -0.0157480
612.026 -0.0157480 -0.00787402 -0.0157480 0.00000 0.0236220 -0.0236220 0.00000 -0.0236220
626.818 0.00787402 -0.0157480 0.00000 -0.00787402 0.00000 0.00787402 0.00000 0.00000
626.818 0.00000 -0.00787402 -0.00787402 -0.0157480 -0.0393701 0.00000 -0.00787402 -0.0157480
642.353 -0.00787402 -0.00787402 0.00000 -0.0157480 0.0236220 -0.0157480 -0.00787402 -0.0236220
642.353 -0.00787402 -0.0157480 -0.00787402 0.00000 0.00787402 -0.00787402 0.00000 -0.0157480
664.815 -0.0157480 0.00000 -0.00787402 -0.00787402 0.00000 0.00000 -0.00787402 -0.00787402
664.815 -0.00787402 -0.00787402 0.00787402 0.00000 0.0393701 -0.0157480 -0.00787402 0.00000
672.630 -0.00787402 0.00000 0.00000 0.00000 -0.0472441 -0.0157480 -0.00787402 -0.00787402
672.630 0.00000 -0.0157480 0.00000 0.0157480 0.00000 -0.00787402 -0.00787402 0.00000
687.716 -0.00787402 -0.00787402 -0.0157480 -0.00787402 -0.0236220 -0.00787402 0.00000 -0.0157480
687.716 -0.00787402 0.00000 -0.0236220 -0.0157480 -0.0236220 -0.00787402 0.00787402 -0.0157480
702.007 -0.00787402 0.00000 -0.0157480 -0.00787402 -0.00787402 -0.0236220 -0.00787402 0.00000
702.007 -0.0157480 0.00000 -0.0157480 -0.0157480 0.00000 -0.0157480 -0.0236220 0.00000
709.697 -0.0236220 -0.00787402 -0.0157480 -0.00787402 -0.0472441 -0.00787402 -0.0157480 -0.00787402
709.697 -0.00787402 -0.0157480 -0.0236220 -0.0157480 -0.0157480 -0.0157480 -0.0157480 -0.00787402
722.402 -0.00787402 -0.00787402 -0.0157480 0.00000 -0.0236220 0.00787402 0.00000 0.00000
722.402 0.00787402 -0.0314961 -0.0157480 -0.00787402 0.00000 0.00000 -0.00787402 0.00000
731.447 0.0157480 -0.0314961 0.00000 -0.00787402 -0.0314961 -0.0236220 -0.00787402 -0.00787402
731.447 0.00787402 -0.0236220 0.00787402 -0.00787402 -0.0314961 -0.0236220 -0.0157480 -0.00787402
754.791 0.00000 -0.00787402 0.00000 -0.0157480 -0.0393701 -0.0157480 -0.00787402 0.00787402
754.791 -0.00787402 -0.00787402 0.00787402 0.00787402 -0.0314961 -0.00787402 -0.00787402 -0.00787402
769.524 -0.00787402 0.00000 -0.0157480 0.00787402 -0.0393701 0.00000 -0.00787402 -0.0157480
769.524 0.0157480 0.00787402 0.00000 0.00000 -0.0472441 0.00787402 0.00000 -0.00787402
784.481 0.00000 0.00000 -0.00787402 -0.00787402 0.0157480 -0.00787402 -0.00787402 -0.00787402
784.481 -0.00787402 0.00000 -0.0157480 -0.00787402 -0.0393701 -0.0157480 -0.00787402 0.00000
792.007 0.00000 0.00000 0.0157480 -0.0157480 0.0393701 -0.0157480 -0.0157480 0.00787402
792.007 -0.0157480 0.00787402 0.00000 -0.00787402 0.0314961 0.00000 -0.00787402 -0.00787402
814.469 -0.0157480 -0.00787402 -0.0157480 -0.00787402 0.0314961 0.00000 0.00787402 0.00000
814.469 -0.00787402 0.00000 -0.0157480 -0.0157480 -0.0157480 0.00787402 0.00000 -0.00787402
821.822 -0.0157480 -0.00787402 -0.00787402 0.00000 0.0472441 0.00000 -0.00787402 -0.00787402
821.822 -0.00787402 -0.00787402 -0.00787402 0.00000 -0.0472441 0.00000 -0.00787402 -0.0157480
829.545 0.00000 0.00000 -0.00787402 0.00787402 -0.0472441 -0.00787402 -0.0157480 0.00000
829.545 -0.0157480 -0.0157480 -0.00787402 0.00787402 -0.0314961 -0.00787402 0.00000 -0.00787402
837.071 -0.00787402 -0.0236220 -0.00787402 -0.00787402 0.0236220 -0.00787402 0.00000 -0.00787402
837.071 0.00000 -0.0157480 -0.0157480 -0.0157480 0.0157480 -0.00787402 -0.00787402 0.00000
844.494 -0.0236220 -0.0157480 -0.00787402 -0.0157480 -0.00787402 -0.00787402 -0.0157480 -0.0157480
844.494 0.00000 -0.0157480 0.00000 0.00000 0.0157480 -0.00787402 -0.00787402 -0.0157480
852.902 -0.00787402 -0.0314961 0.0314961 -0.0157480 0.0236220 -0.00787402 -0.0157480 -0.00787402
852.902 0.00000 0.00787402 -0.00787402 -0.00787402 0.0157480 -0.0157480 -0.0157480 -0.00787402
866.812 0.00000 0.00000 -0.00787402 0.00000 0.00000 0.00000 0.00000 -0.00787402
866.812 -0.00787402 -0.00787402 -0.0157480 0.00000 -0.0157480 -0.0157480 0.00000 0.00000
872.553 -0.00787402 0.00787402 0.00787402 0.00000 -0.0157480 -0.00787402 -0.00787402 -0.0157480
872.553 -0.00787402 0.0157480 -0.00787402 -0.0157480 -0.0472441 0.00000 -0.0157480 -0.00787402
882.402 0.00000 0.0236220 -0.0157480 -0.0314961 -0.0472441 -0.0157480 0.00000 -0.00787402
882.402 0.00787402 0.00000 -0.0472441 -0.0236220 0.0393701 -0.00787402 -0.00787402 0.00000
889.986 -0.0236220 -0.00787402 -0.0236220 -0.00787402 0.0157480 0.00000 -0.00787402 0.00000
889.986 -0.00787402 -0.0157480 0.00787402 -0.0236220 0.0236220 -0.00787402 0.00787402 0.00000
904.931 -0.00787402 0.00000 0.00000 0.00787402 0.0236220 0.0157480 -0.00787402 -0.0236220
904.931 -0.00787402 -0.00787402 0.00000 -0.00787402 0.00000 0.0157480 0.00787402 0.00787402
927.048 -0.0157480 -0.00787402 -0.0157480 -0.0157480 0.0236220 -0.0157480 0.00000 0.00787402
927.048 -0.0157480 0.00000 0.00787402 -0.00787402 -0.0236220 -0.0236220 -0.0157480 -0.00787402
934.481 0.00787402 0.00787402 -0.00787402 -0.0157480 -0.0236220 -0.0314961 -0.0157480 0.00000
934.481 -0.00787402 0.00000 -0.0157480 0.00000 0.00787402 -0.0157480 0.00000 -0.00787402
942.036 0.00787402 -0.0236220 -0.0157480 -0.00787402 0.00787402 -0.00787402 0.00787402 0.00000
942.036 0.00000 -0.0236220 0.00000 -0.00787402 -0.0393701 -0.00787402 -0.00787402 0.00000
972.157 0.00000 -0.0157480 -0.00787402 0.00000 0.0157480 -0.00787402 0.00000 -0.0236220
972.157 -0.00787402 -0.00787402 -0.0157480 0.00787402 0.00000 0.00000 0.00787402 0.00000
979.620 -0.00787402 0.00787402 0.00000 -0.0157480 -0.0393701 0.00000 0.00000 0.00787402
979.620 -0.0236220 0.00787402 -0.00787402 0.00000 0.00000 0.00000 0.00000 -0.0157480
986.856 -0.00787402 -0.00787402 -0.0236220 -0.00787402 -0.0944882 0.00000 -0.00787402 0.00000
986.856 -0.00787402 0.00000 -0.00787402 -0.00787402 0.00000 0.00787402 -0.0157480 -0.00787402
994.543 -0.00787402 0.00000 0.00787402 -0.00787402 0.00000 -0.0157480 0.00000 0.00000
994.543 -0.0157480 -0.0236220 0.00000 -0.00787402 -0.00787402 0.00000 -0.00787402 -0.00787402
1001.94 0.00000 0.00787402 -0.00787402 -0.0157480 0.00000 -0.00787402 -0.00787402 0.00000
1001.94 0.00000 0.00000 -0.0236220 -0.0236220 0.0157480 0.00000 -0.00787402 0.00000
1017.02 0.00787402 -0.00787402 -0.0157480 -0.0157480 0.00787402 -0.00787402 -0.00787402 0.00000
1017.02 0.00787402 -0.00787402 -0.0236220 0.00000 -0.0157480 -0.00787402 -0.00787402 0.00000
1039.52 -0.00787402 0.00787402 -0.00787402 -0.00787402 -0.00787402 -0.00787402 0.00000 0.00000
1039.52 -0.00787402 -0.00787402 0.00787402 -0.00787402 -0.00787402 -0.0157480 0.00000 -0.00787402
1047.03 -0.00787402 -0.0314961 -0.0157480 -0.00787402 -0.0551181 -0.00787402 0.00000 -0.00787402
1047.03 -0.00787402 -0.00787402 -0.00787402 -0.00787402 0.00000 -0.00787402 0.00000 -0.00787402
1070.03 -0.00787402 -0.00787402 -0.00787402 -0.00787402 0.00000 -0.00787402 -0.00787402 -0.00787402
1070.03 -0.00787402 0.00000 -0.00787402 -0.0236220 0.00787402 0.00000 -0.00787402 0.00000
1076.98 0.00000 -0.00787402 -0.0157480 0.00000 -0.0157480 0.00787402 -0.0157480 -0.00787402
1076.98 -0.00787402 -0.0236220 -0.0157480 0.00000 -0.0236220 -0.0157480 -0.00787402 -0.00787402
1092.59 -0.00787402 0.00000 -0.00787402 -0.0157480 -0.0393701 0.00000 0.00000 -0.00787402
1092.59 0.00000 -0.0157480 0.00000 -0.0157480 -0.0157480 -0.0157480 -0.00787402 0.00787402
1099.45 -0.00787402 -0.0236220 -0.0236220 -0.00787402 -0.0236220 -0.00787402 0.00000 -0.00787402
1099.45 0.00787402 0.00787402 -0.0157480 0.00000 -0.00787402 0.00000 -0.00787402 -0.00787402
1107.40 -0.00787402 0.00000 -0.0157480 0.00000 0.00787402 0.0157480 -0.0157480 0.00000
1107.40 0.00000 0.00000 0.00000 0.00000 0.0236220 -0.00787402 -0.00787402 0.00000
1127.00 0.00787402 -0.00787402 -0.00787402 -0.0157480 -0.0236220 -0.00787402 0.00000 -0.00787402
1129.03 0.00000 -0.0157480 0.00787402 -0.00787402 -0.00787402 -0.00787402 -0.00787402 0.00000
1142.37 -0.0157480 -0.00787402 0.0236220 -0.00787402 0.0472441 0.00000 0.00000 -0.00787402
1142.37 -0.00787402 -0.00787402 0.00000 0.00000 -0.0393701 -0.00787402 0.00000 -0.0157480
1151.94 0.00787402 -0.00787402 -0.0157480 -0.00787402 0.00000 -0.0157480 0.00000 0.00000
1151.94 -0.0236220 0.00787402 -0.0157480 0.00000 -0.0236220 -0.00787402 0.00787402 -0.0157480
1181.95 -0.00787402 -0.00787402 -0.0236220 0.00787402 -0.0157480 -0.00787402 0.00000 -0.00787402
1181.95 0.00000 0.00000 0.00000 -0.00787402 -0.00787402 -0.0157480 -0.0157480 -0.00787402
1189.77 -0.0157480 0.00000 -0.00787402 0.00000 -0.0157480 -0.0236220 0.00000 0.00000
1189.77 0.00000 -0.00787402 0.0157480 -0.00787402 -0.0393701 0.00000 -0.00787402 0.00000
1204.63 -0.00787402 -0.0314961 -0.0157480 -0.0236220 0.00787402 0.00000 0.00000 -0.00787402
1204.63 -0.00787402 -0.00787402 -0.00787402 0.00000 0.0157480 -0.00787402 0.00000 -0.00787402
1234.64 -0.0157480 0.00787402 -0.00787402 -0.00787402 0.00000 0.00000 -0.00787402 -0.00787402
1234.64 0.00000 -0.0157480 0.00000 0.00000 0.0236220 -0.00787402 0.00000 0.00000
1249.46 -0.00787402 -0.00787402 -0.0157480 0.00000 -0.0157480 0.00000 -0.00787402 -0.0236220
1249.46 -0.00787402 0.00000 -0.0157480 -0.0157480 -0.00787402 -0.00787402 0.00787402 -0.00787402
1264.69 0.00000 0.0157480 -0.0236220 -0.00787402 0.0157480 -0.00787402 -0.00787402 -0.00787402
1264.69 -0.00787402 -0.00787402 -0.00787402 -0.00787402 0.0393701 -0.0157480 -0.0157480 -0.00787402
1279.47 -0.0236220 -0.0157480 0.0157480 -0.00787402 -0.0314961 0.00000 -0.00787402 0.00000
1279.47 -0.00787402 -0.0314961 -0.00787402 -0.0157480 -0.0393701 -0.00787402 0.00000 0.00000
1292.02 0.00000 0.00000 -0.00787402 0.00000 0.00787402 -0.00787402 -0.00787402 -0.0236220
1292.02 0.00787402 0.00787402 0.00000 0.00000 -0.0551181 -0.00787402 0.00000 0.00000
1323.37 -0.0157480 -0.0157480 -0.00787402 -0.00787402 -0.00787402 -0.00787402 -0.00787402 0.00787402
1323.37 -0.0236220 -0.0157480 -0.0236220 -0.00787402 -0.0472441 -0.0236220 -0.00787402 -0.0157480
1346.76 0.00000 0.00000 0.00000 -0.00787402 0.0157480 -0.0157480 0.00000 -0.00787402
1346.76 0.00787402 -0.0157480 0.00787402 -0.0157480 0.00787402 -0.00787402 -0.00787402 -0.0236220
1377.03 0.00000 -0.0157480 -0.00787402 0.00000 0.00000 0.00000 -0.00787402 0.00000
1377.03 -0.00787402 -0.0236220 -0.0157480 -0.00787402 -0.0236220 0.00787402 -0.00787402 -0.00787402
1399.45 -0.00787402 0.00000 -0.00787402 0.00000 0.00787402 -0.00787402 -0.0236220 -0.0157480
1399.45 -0.00787402 0.00787402 -0.00787402 -0.00787402 0.00787402 -0.00787402 0.00000 0.00787402
1412.85 -0.0157480 -0.00787402 0.00000 -0.00787402 -0.0393701 0.00000 -0.00787402 -0.0157480
1412.85 0.00787402 -0.00787402 -0.0157480 0.00000 0.0236220 -0.00787402 -0.0157480 0.00000
1436.95 -0.0157480 -0.00787402 -0.0157480 -0.0157480 -0.0236220 -0.0157480 0.00000 0.00000
1436.95 -0.0157480 0.0236220 0.0157480 0.00000 -0.0157480 0.00000 0.00787402 0.00000
1466.97 -0.00787402 -0.0314961 0.00000 -0.00787402 -0.0314961 -0.0157480 0.00000 -0.00787402
1466.97 0.00000 -0.0236220 -0.00787402 0.00000 -0.0236220 -0.00787402 0.00000 -0.0157480
1496.95 0.00000 0.00000 0.00000 0.00000 -0.00787402 -0.00787402 -0.00787402 -0.0157480
1496.95 0.00000 0.00000 0.00787402 0.00000 0.00787402 0.00000 0.00000 0.00787402
1519.44 0.00000 -0.0157480 -0.0236220 -0.00787402 -0.0314961 0.00787402 0.00000 -0.00787402
1519.44 -0.00787402 -0.0314961 -0.0236220 -0.00787402 -0.0314961 -0.00787402 -0.00787402 -0.00787402
1541.59 -0.00787402 -0.00787402 0.00787402 0.00000 -0.0157480 -0.00787402 0.00000 0.0393701
1541.59 0.00787402 -0.0157480 -0.0157480 -0.00787402 0.00000 0.00000 -0.0157480 -0.102362
1549.44 -0.0157480 0.00787402 0.00787402 -0.00787402 0.0157480 -0.0157480 -0.0236220 -0.0236220
1549.44 -0.00787402 -0.00787402 -0.00787402 -0.00787402 0.0393701 -0.00787402 -0.00787402 0.0314961
1557.48 0.00787402 -0.00787402 0.00000 0.00000 0.0236220 0.00000 -0.00787402 0.0551181
1557.48 -0.0157480 0.00787402 -0.0157480 0.00787402 0.00000 -0.00787402 -0.00787402 0.0157480
1572.59 -0.00787402 -0.0157480 -0.00787402 0.00000 -0.0472441 -0.0157480 -0.00787402 -0.0314961
1572.59 0.00000 -0.0236220 0.0236220 -0.0157480 -0.00787402 -0.0157480 -0.00787402 0.0236220
1594.52 -0.0157480 -0.0157480 -0.00787402 0.00000 -0.00787402 0.00000 -0.0157480 -0.00787402
1594.52 -0.0157480 -0.00787402 -0.00787402 -0.00787402 0.0314961 0.00000 0.0157480 -0.0314961
1609.53 0.00000 -0.0157480 -0.00787402 -0.0236220 0.0393701 -0.00787402 -0.00787402 -0.00787402
1609.53 -0.00787402 0.00000 -0.0157480 -0.0157480 0.00000 -0.00787402 -0.0236220 0.00000
1640.04 0.00787402 -0.00787402 -0.0236220 0.00000 -0.0472441 -0.0157480 -0.0236220 0.0236220
1640.04 0.00000 -0.00787402 -0.00787402 -0.0157480 -0.0236220 -0.0236220 0.00000 0.00787402
1646.99 -0.0157480 0.00787402 0.00000 -0.00787402 0.00787402 0.00000 -0.0157480 -0.0314961
1646.99 -0.00787402 0.00787402 0.00000 -0.0157480 0.00787402 0.00000 0.00787402 -0.0157480
1654.77 0.00000 -0.0157480 -0.00787402 -0.0157480 -0.0236220 0.00000 0.00000 0.00000
1654.77 0.00000 -0.0157480 0.0157480 0.00787402 -0.0314961 -0.00787402 0.00000 0.00000
1668.75 -0.00787402 -0.0236220 0.00787402 -0.00787402 -0.00787402 0.00787402 0.0157480 0.0157480
1668.75 -0.0314961 -0.0157480 -0.00787402 -0.00787402 0.00000 -0.0236220 -0.00787402 -0.0157480
1677.30 -0.00787402 0.00000 -0.00787402 0.00000 -0.00787402 -0.0236220 -0.00787402 -0.0157480
1677.30 0.00000 0.00000 -0.0236220 0.00000 -0.0551181 -0.0236220 -0.00787402 0.0157480
1684.47 -0.00787402 -0.0157480 -0.00787402 -0.00787402 0.00000 0.00000 -0.00787402 0.00000
1684.47 -0.0157480 0.00000 0.00000 -0.0236220 -0.00787402 -0.00787402 -0.0157480 -0.0472441
1714.45 0.00000 0.00000 0.0157480 -0.0157480 -0.0629921 -0.00787402 -0.00787402 0.0393701
1714.45 0.00787402 -0.0157480 0.00000 -0.00787402 -0.0629921 -0.0157480 -0.00787402 0.00000
1744.52 -0.00787402 0.00000 -0.00787402 -0.00787402 -0.00787402 0.00000 -0.00787402 -0.0314961
1744.52 0.00000 -0.0236220 -0.0236220 0.00000 0.0314961 0.00000 -0.00787402 0.0157480
1774.83 -0.00787402 0.00000 -0.0157480 0.00787402 -0.00787402 0.00000 0.00000 -0.0236220
1774.83 0.00787402 0.00000 0.00000 0.00000 -0.00787402 -0.0236220 0.00000 0.0157480
1798.12 -0.0157480 -0.0314961 0.00000 0.00000 -0.00787402 -0.00787402 -0.0157480 0.0157480
1798.12 -0.00787402 -0.00787402 0.00000 0.00000 -0.00787402 -0.0236220 -0.00787402 -0.0236220
1812.01 -0.00787402 -0.00787402 -0.0236220 -0.0236220 0.00787402 -0.0157480 0.00000 -0.0157480
1812.01 -0.0236220 -0.00787402 0.00000 -0.0157480 0.00000 0.00000 -0.00787402 0.0157480
1826.59 0.00000 0.00000 0.00787402 0.00000 0.0393701 -0.0157480 0.00000 -0.00787402
1826.59 0.00000 -0.0157480 0.00000 -0.0157480 -0.0236220 -0.0157480 -0.0157480 0.00787402
1842.37 -0.0157480 0.00787402 -0.0236220 -0.00787402 0.00000 0.00787402 -0.00787402 -0.00787402
1842.37 -0.00787402 -0.00787402 0.00000 0.00000 -0.0314961 0.00000 0.00000 0.00787402
1856.99 -0.00787402 -0.00787402 -0.0236220 -0.00787402 0.0157480 -0.00787402 0.00000 0.00000
1856.99 -0.0157480 -0.0157480 -0.00787402 -0.0157480 0.0236220 -0.00787402 -0.00787402 -0.0157480
1864.52 0.00787402 0.00787402 -0.0157480 -0.0157480 -0.0393701 -0.00787402 0.00000 0.00787402
1864.52 -0.00787402 0.00787402 -0.0157480 0.00787402 -0.0236220 -0.0157480 -0.00787402 0.00000
1886.82 0.00000 0.00000 0.00000 -0.00787402 -0.00787402 -0.0157480 -0.0157480 0.00000
1886.82 0.00000 0.00000 0.00787402 0.00787402 -0.0157480 0.00787402 0.00000 -0.00787402
1901.98 0.00000 -0.0157480 0.00787402 -0.00787402 0.0236220 0.00000 -0.00787402 -0.00787402
1901.98 0.00000 0.00000 0.00787402 -0.00787402 0.0314961 0.00000 0.00000 0.00000
1922.79 0.00000 0.00000 -0.0236220 0.00000 -0.0157480 -0.00787402 -0.0157480 -0.00787402
1922.79 0.00000 0.00000 -0.0236220 -0.0157480 -0.0157480 -0.00787402 0.00000 -0.00787402
1939.03 -0.00787402 -0.0236220 -0.00787402 0.00000 0.0236220 -0.0157480 0.00000 -0.00787402
1939.03 0.00000 -0.00787402 0.0157480 -0.0157480 0.00000 -0.00787402 -0.00787402 0.00000
1946.89 -0.0157480 0.00000 0.00000 0.00000 -0.0314961 -0.0157480 0.00000 -0.0157480
1946.89 -0.0157480 -0.0314961 -0.00787402 -0.0157480 -0.0236220 -0.00787402 -0.00787402 -0.0157480
1952.84 0.00000 -0.0314961 -0.0157480 -0.00787402 0.0157480 -0.00787402 -0.00787402 -0.00787402
1952.84 -0.00787402 -0.0236220 0.00000 -0.00787402 -0.00787402 -0.00787402 -0.00787402 0.00000
1960.00 -0.00787402 0.00000 -0.0157480 -0.00787402 0.0157480 0.0157480 0.0157480 -0.00787402
1960.00 0.00000 -0.00787402 -0.00787402 0.00000 0.00787402 -0.00787402 0.00787402 -0.00787402
1992.49 -0.00787402 0.00000 -0.00787402 0.00000 -0.0157480 -0.0157480 -0.0157480 -0.0236220
1992.49 0.00000 -0.0157480 0.00000 0.00000 -0.00787402 -0.00787402 0.00000 0.00000
1998.91 0.00000 -0.0157480 0.00000 0.00787402 0.0393701 -0.00787402 0.00000 -0.00787402
1998.91 -0.00787402 0.00787402 0.00787402 0.00000 0.0236220 -0.0157480 -0.00787402 -0.00787402
2014.70 0.00000 0.00000 -0.0157480 0.00000 0.00787402 -0.0157480 -0.00787402 0.00787402
2014.70 -0.00787402 -0.00787402 -0.00787402 -0.0157480 0.00000 0.00000 -0.0157480 -0.00787402
2022.58 0.00000 -0.0236220 -0.0236220 -0.0157480 0.00000 0.00000 -0.0157480 -0.0157480
2022.58 -0.0157480 -0.00787402 -0.0236220 -0.00787402 -0.0472441 0.00000 0.00787402 -0.00787402
2029.48 -0.00787402 -0.00787402 -0.0157480 -0.0236220 0.0629921 -0.00787402 0.00787402 0.00000
2029.48 0.00000 0.00000 0.00787402 -0.00787402 0.00787402 -0.0157480 -0.00787402 -0.00787402
2051.90 0.00000 -0.0314961 0.00000 -0.00787402 -0.0157480 -0.00787402 -0.00787402 -0.00787402
2051.90 -0.0157480 -0.00787402 -0.0236220 0.00000 -0.0157480 0.00000 -0.0236220 0.00000
2072.62 -0.0157480 0.00000 -0.0157480 0.00000 -0.0393701 0.00000 -0.00787402 -0.00787402
2072.62 -0.00787402 0.00000 -0.00787402 -0.00787402 -0.0551181 -0.00787402 0.00787402 -0.0157480
2082.01 -0.0157480 -0.00787402 -0.0157480 0.00787402 0.00787402 0.00000 -0.00787402 0.00000
2082.01 -0.00787402 -0.0157480 -0.00787402 -0.0157480 -0.0314961 -0.00787402 -0.00787402 0.00000
2097.03 -0.00787402 -0.0157480 0.0157480 -0.00787402 -0.00787402 -0.0157480 -0.00787402 -0.00787402
2097.03 0.00000 -0.00787402 -0.00787402 -0.00787402 -0.0393701 -0.00787402 -0.00787402 -0.00787402
2112.01 -0.00787402 -0.00787402 0.00000 0.00000 -0.0393701 -0.0157480 0.00787402 -0.00787402
2112.01 0.00000 0.00000 -0.00787402 0.00000 0.0157480 -0.00787402 -0.00787402 0.00787402
2117.17 0.00000 -0.0157480 -0.00787402 -0.00787402 0.00000 -0.00787402 -0.00787402 -0.0157480
2117.17 -0.00787402 0.00000 -0.00787402 -0.0157480 0.00000 0.00787402 -0.00787402 -0.00787402
2127.22 -0.0157480 0.00787402 0.00000 -0.0236220 0.0314961 0.00787402 -0.00787402 -0.0157480
2127.22 -0.0157480 -0.00787402 0.00000 -0.00787402 -0.0236220 0.00000 -0.0157480 -0.00787402
2149.50 0.00000 0.00000 -0.00787402 -0.00787402 -0.0314961 -0.00787402 0.00000 -0.00787402
2149.50 -0.00787402 -0.00787402 0.00000 0.00000 -0.0551181 -0.00787402 0.00787402 -0.00787402
2164.42 -0.00787402 0.00787402 0.00787402 0.00787402 -0.00787402 0.00787402 0.00000 0.00000
2164.42 -0.00787402 0.00000 -0.0157480 -0.0157480 -0.0314961 0.00000 0.00000 0.00000
2179.66 0.00000 0.00787402 -0.0157480 -0.00787402 -0.0393701 -0.0157480 -0.00787402 -0.0157480
2179.66 -0.0157480 -0.0157480 0.00000 0.00000 0.0551181 -0.00787402 -0.00787402 0.00000
2194.61 -0.00787402 -0.0157480 -0.0157480 -0.0157480 0.00787402 0.00000 0.00000 -0.00787402
2194.61 -0.00787402 -0.0236220 -0.00787402 -0.0236220 -0.0314961 -0.00787402 0.00787402 0.00000
2224.92 -0.00787402 -0.0236220 0.00000 0.00787402 0.0236220 0.00000 -0.0157480 -0.00787402
2224.92 0.00000 0.00000 -0.0157480 0.00787402 0.0236220 -0.0157480 -0.00787402 -0.0157480
2254.61 0.00000 0.0157480 0.00000 0.00787402 -0.0393701 -0.0236220 -0.00787402 -0.00787402
2254.61 -0.0157480 -0.00787402 -0.00787402 -0.0157480 0.0236220 -0.0157480 0.00787402 -0.0157480
2277.05 0.00000 0.0157480 0.00787402 -0.0157480 0.00787402 -0.0157480 0.00000 -0.0157480
2277.05 -0.0157480 -0.0157480 -0.00787402 -0.0157480 -0.0236220 -0.0157480 -0.0236220 0.00000
2284.38 -0.0236220 -0.0157480 -0.0157480 -0.00787402 -0.0314961 -0.00787402 -0.0236220 0.0157480
2284.38 -0.00787402 0.00000 -0.00787402 0.00787402 -0.0314961 0.00000 -0.0236220 0.00000
2292.53 -0.00787402 -0.00787402 -0.00787402 -0.0157480 -0.0157480 0.00000 0.00000 -0.0157480
2292.53 -0.0236220 0.0157480 -0.0157480 -0.00787402 0.0157480 -0.00787402 0.00787402 -0.00787402
2306.60 0.00787402 -0.00787402 0.00000 -0.00787402 -0.0157480 -0.00787402 0.00000 -0.00787402
2306.60 -0.00787402 -0.00787402 0.00787402 -0.0157480 0.00787402 -0.00787402 -0.0157480 -0.00787402
2314.52 0.00000 -0.0393701 -0.00787402 0.00000 0.00787402 -0.0157480 -0.0157480 0.00000
2314.52 -0.0157480 -0.0236220 -0.0236220 -0.00787402 -0.0157480 0.00000 0.00000 0.00000
2322.34 -0.0157480 0.00000 0.00000 -0.00787402 -0.0236220 -0.00787402 0.00000 0.00000
2322.34 -0.00787402 0.00000 -0.0157480 0.00000 0.00000 0.00000 0.00000 -0.00787402
2336.93 -0.00787402 -0.0157480 -0.00787402 -0.00787402 -0.0472441 0.00000 -0.00787402 0.00000
2336.93 -0.00787402 -0.0157480 -0.00787402 -0.0157480 -0.0236220 -0.0157480 0.00787402 -0.00787402
2344.47 0.00000 0.00000 0.00000 -0.0236220 0.00000 0.00000 0.00787402 -0.0157480
2344.47 0.00787402 -0.0236220 0.00000 -0.0157480 -0.0236220 -0.0157480 -0.00787402 0.00000
2358.85 -0.00787402 -0.00787402 -0.00787402 -0.0236220 0.0157480 -0.0157480 -0.00787402 -0.0157480
2358.85 -0.00787402 0.00000 -0.0236220 -0.0157480 -0.0314961 0.0157480 -0.00787402 0.00000
2374.94 -0.00787402 -0.00787402 0.00000 0.00787402 -0.0157480 0.00000 -0.00787402 0.00000
2374.94 -0.0157480 -0.00787402 0.00000 -0.0157480 -0.0157480 0.00000 -0.0157480 0.00000
2389.82 -0.00787402 0.00787402 0.00000 -0.0236220 -0.00787402 -0.0157480 0.00000 -0.125984
2389.82 0.00000 0.00000 0.00000 -0.00787402 -0.00787402 -0.00787402 -0.0157480 0.00000
2404.65 0.00000 -0.00787402 0.00787402 0.00000 0.00000 0.00000 -0.00787402 -0.0314961
2404.65 -0.00787402 -0.00787402 -0.00787402 0.00000 0.0629921 -0.00787402 0.00000 -0.00787402
2412.01 -0.00787402 -0.00787402 -0.0236220 0.00000 0.0157480 -0.00787402 -0.0157480 0.0314961
2412.01 -0.00787402 0.00000 -0.00787402 -0.00787402 -0.00787402 0.00000 0.00000 -0.00787402
2427.03 -0.00787402 0.00000 0.00787402 -0.0157480 -0.0393701 -0.00787402 -0.0157480 0.00787402
2427.03 -0.00787402 -0.0157480 0.00787402 -0.00787402 -0.0393701 0.00000 0.00000 -0.0157480
2456.99 -0.0157480 0.00000 -0.0157480 0.00000 0.0157480 -0.00787402 0.00000 0.00000
2456.99 -0.0236220 0.00000 -0.0314961 -0.00787402 -0.0157480 -0.00787402 0.00000 0.00000
2477.34 -0.00787402 0.00000 -0.0236220 -0.00787402 0.0157480 0.00000 0.00000 0.00000
2477.34 -0.00787402 -0.0157480 0.0157480 -0.0157480 -0.0708661 -0.00787402 -0.00787402 -0.0236220
2486.95 -0.00787402 -0.00787402 -0.00787402 -0.00787402 -0.00787402 -0.00787402 -0.0157480 0.00787402
2486.95 -0.0157480 -0.0551181 -0.0551181 0.00000 0.00787402 -0.0157480 -0.00787402 0.00000
2509.86 0.00000 0.00000 -0.00787402 -0.00787402 -0.0314961 -0.0157480 -0.00787402 -0.0157480
2509.86 0.00000 0.0236220 0.0157480 0.00000 -0.0314961 0.00787402 -0.0157480 -0.0314961
2516.96 0.00000 0.0157480 -0.0157480 -0.00787402 0.00787402 -0.00787402 -0.00787402 0.00000
2516.96 0.00787402 0.00787402 0.00000 -0.00787402 0.0157480 -0.00787402 -0.00787402 -0.0157480
2540.31 -0.00787402 -0.00787402 -0.0236220 -0.0157480 0.0236220 -0.0157480 0.00000 0.0157480
2540.31 0.00000 0.00000 -0.00787402 -0.00787402 -0.0314961 -0.00787402 -0.00787402 0.00000
2554.16 -0.00787402 0.00000 0.00787402 0.00000 -0.0314961 -0.0157480 -0.00787402 -0.0157480
2554.16 -0.00787402 -0.0314961 -0.00787402 -0.00787402 0.00787402 -0.0157480 0.00000 -0.0157480
2561.89 0.00000 -0.0236220 -0.0314961 -0.0157480 -0.0157480 -0.00787402 -0.00787402 -0.00787402
2561.89 0.00000 0.00787402 0.00000 -0.0157480 -0.0236220 0.00000 0.00000 -0.00787402
2569.50 -0.00787402 0.00787402 -0.0236220 -0.00787402 -0.0314961 0.00000 -0.0236220 -0.00787402
2569.50 0.00000 0.00787402 0.0157480 -0.00787402 0.00000 0.00000 -0.00787402 -0.0157480
2591.96 -0.00787402 -0.0314961 -0.00787402 -0.00787402 -0.0157480 -0.00787402 0.00787402 0.00000
2591.96 -0.0157480 -0.0157480 0.00000 -0.0157480 -0.00787402 0.00000 -0.00787402 0.00000
2607.30 -0.0157480 -0.00787402 -0.0236220 -0.00787402 -0.00787402 -0.0157480 0.00787402 -0.00787402
2607.30 0.00000 0.00787402 -0.00787402 -0.0236220 0.00000 -0.00787402 -0.00787402 0.0157480
2614.40 -0.00787402 0.0157480 -0.00787402 0.00000 -0.0157480 -0.00787402 -0.0157480 0.00000
2614.40 0.00000 -0.0157480 -0.00787402 0.00000 0.0157480 -0.0157480 -0.00787402 -0.00787402
2636.96 0.00000 0.00787402 -0.0236220 0.00000 0.0393701 -0.0157480 -0.00787402 0.00787402
2636.96 -0.00787402 0.0157480 -0.0157480 -0.0157480 -0.00787402 -0.0157480 -0.0157480 -0.00787402
2666.95 -0.00787402 -0.0236220 0.00000 -0.00787402 -0.0314961 0.00000 -0.00787402 -0.0157480
2666.95 -0.00787402 -0.00787402 -0.0157480 -0.0157480 -0.0157480 -0.0236220 -0.00787402 -0.0157480
2681.84 -0.0157480 -0.0157480 -0.0157480 -0.0157480 0.0157480 -0.00787402 -0.00787402 0.00000
2681.84 0.00787402 0.00000 0.00000 0.00787402 -0.00787402 -0.0157480 -0.00787402 0.00000
2691.90 -0.00787402 0.00000 0.00000 -0.0157480 0.0157480 -0.00787402 0.00000 -0.0157480
2691.90 0.00000 0.00787402 0.00000 0.00000 0.00000 0.00787402 -0.00787402 0.00787402
2696.97 -0.0157480 -0.00787402 0.00000 -0.00787402 -0.0629921 -0.00787402 -0.0157480 -0.0157480
2696.97 -0.0157480 -0.0157480 -0.00787402 -0.00787402 -0.00787402 -0.0157480 0.00000 0.00000
2704.44 -0.00787402 -0.0236220 0.00000 0.00000 -0.0236220 -0.00787402 -0.00787402 -0.0157480
2704.44 -0.0157480 -0.0236220 -0.00787402 -0.00787402 0.0157480 0.00000 0.00787402 -0.00787402
2712.02 0.00000 0.00000 -0.0157480 0.00000 -0.0393701 -0.0157480 -0.00787402 0.00000
2712.02 0.00000 0.00000 -0.0157480 -0.0157480 -0.0393701 -0.00787402 0.00000 -0.00787402
2719.73 -0.00787402 0.00787402 -0.0157480 -0.0157480 -0.0551181 -0.00787402 -0.0157480 -0.0157480
2719.73 -0.00787402 0.00787402 0.00000 -0.0157480 0.00787402 0.00000 -0.0157480 0.00787402
2727.03 -0.00787402 0.00787402 -0.00787402 -0.00787402 0.0236220 0.00787402 -0.00787402 -0.00787402
2727.03 -0.0157480 0.00000 0.0157480 -0.00787402 -0.0157480 0.00000 0.00000 -0.0157480
2741.99 -0.0157480 -0.0236220 0.00000 0.00000 0.0314961 -0.00787402 0.00000 -0.00787402
2741.99 0.00787402 -0.0157480 0.00000 0.00000 0.00000 0.00000 0.00000 -0.0157480
2757.29 -0.00787402 0.00000 -0.00787402 0.00000 -0.00787402 -0.0157480 0.00787402 -0.00787402
2757.29 0.00000 0.00000 -0.00787402 0.00000 -0.0236220 -0.0157480 0.00787402 0.00000
2779.47 -0.00787402 -0.0157480 0.0157480 -0.0157480 -0.0314961 0.00787402 -0.0157480 0.00000
2779.47 0.00000 -0.0157480 -0.0157480 0.00000 0.00000 0.00000 -0.00787402 -0.0157480
2794.77 -0.00787402 -0.00787402 -0.0157480 -0.00787402 -0.0472441 -0.00787402 0.00000 -0.00787402
2794.77 0.00787402 -0.0472441 -0.0236220 0.00787402 -0.0551181 0.00000 -0.00787402 -0.0157480
2801.72 0.00000 -0.00787402 -0.0157480 -0.00787402 0.0236220 -0.00787402 -0.0157480 -0.00787402
2801.72 -0.00787402 -0.00787402 -0.00787402 -0.00787402 -0.00787402 -0.00787402 -0.0157480 0.00000
2809.52 0.00000 0.0236220 0.00787402 -0.0157480 0.00000 -0.00787402 0.00000 -0.00787402
2809.52 -0.0157480 0.0157480 -0.00787402 -0.0157480 0.0157480 -0.0236220 -0.00787402 -0.00787402
2817.01 -0.0236220 0.00000 0.00000 0.00787402 -0.0157480 0.00000 0.00787402 -0.00787402
2817.01 -0.00787402 -0.0157480 -0.00787402 -0.0157480 -0.0314961 -0.00787402 -0.00787402 -0.00787402
2839.98 0.00787402 -0.00787402 -0.00787402 0.00000 -0.0157480 0.00787402 -0.0157480 0.00000
2839.98 0.00000 -0.0314961 -0.0236220 0.00787402 0.0236220 -0.00787402 -0.00787402 -0.0157480
2846.93 0.00000 -0.0157480 -0.0157480 -0.00787402 -0.00787402 -0.00787402 -0.00787402 0.00787402
2846.93 -0.0157480 -0.0157480 0.00000 0.00000 0.0157480 -0.0157480 -0.0157480 0.00000
2854.48 -0.00787402 -0.0157480 0.00000 -0.0157480 0.0314961 -0.0157480 -0.00787402 0.00787402
2854.48 -0.00787402 0.00000 -0.00787402 -0.0157480 -0.0157480 -0.00787402 -0.00787402 0.00000
2869.49 0.00000 -0.00787402 -0.0236220 -0.0157480 -0.0157480 -0.00787402 -0.00787402 -0.0157480
2869.49 -0.00787402 -0.00787402 -0.0157480 -0.0236220 0.0157480 0.00000 0.00000 -0.00787402
2877.10 0.00787402 0.00000 0.00000 -0.0157480 0.0236220 -0.00787402 0.00000 -0.0157480
2877.10 -0.0157480 0.00787402 0.00787402 0.00000 0.00000 -0.0236220 -0.0157480 -0.0157480
2884.45 -0.00787402 -0.00787402 -0.00787402 0.00787402 -0.0314961 -0.00787402 -0.00787402 -0.00787402
2884.45 0.00787402 -0.00787402 0.00000 0.00000 0.0314961 0.00000 -0.00787402 -0.00787402
2899.40 -0.0157480 0.00000 0.0236220 0.00787402 0.0393701 0.00787402 -0.0157480 0.00000
2899.40 -0.00787402 -0.0236220 -0.0314961 0.00787402 -0.00787402 0.00787402 -0.00787402 0.00000
2906.97 -0.0157480 -0.0236220 -0.0236220 -0.00787402 -0.0157480 -0.0157480 -0.0157480 0.00000
2906.97 -0.00787402 0.00000 -0.0236220 0.00000 -0.0236220 -0.00787402 0.00787402 -0.00787402
2929.41 0.00000 -0.0157480 0.00000 -0.0236220 -0.00787402 -0.0157480 -0.0157480 -0.00787402
2929.41 -0.00787402 0.00000 0.00787402 -0.00787402 -0.0393701 -0.00787402 0.00000 -0.0157480
2936.96 -0.00787402 0.00000 0.00000 -0.00787402 0.0314961 -0.0157480 -0.00787402 -0.00787402
2936.96 -0.00787402 -0.00787402 0.00787402 -0.00787402 0.00787402 0.00787402 0.00000 0.00000
2951.96 -0.00787402 -0.00787402 0.00000 0.00000 -0.0314961 0.00000 -0.0157480 0.00000
2951.96 -0.00787402 0.00787402 -0.00787402 -0.00787402 -0.00787402 -0.00787402 -0.0157480 -0.00787402
2966.21 -0.00787402 0.00787402 -0.0314961 -0.0157480 -0.0157480 -0.00787402 -0.00787402 -0.0157480
2966.21 -0.0157480 0.00000 -0.00787402 -0.00787402 0.0157480 -0.0157480 -0.00787402 -0.0236220
2973.75 -0.00787402 -0.00787402 -0.0157480 -0.0157480 0.0472441 -0.0157480 0.00000 0.00787402
2973.75 0.00000 -0.00787402 0.00000 -0.0157480 -0.00787402 -0.0157480 0.00787402 -0.00787402
2981.37 -0.00787402 0.00000 0.00787402 -0.0157480 -0.00787402 0.00000 -0.00787402 0.00000
2981.37 -0.0157480 -0.00787402 -0.00787402 -0.0157480 -0.00787402 -0.0157480 -0.00787402 -0.00787402
2988.80 0.00787402 -0.0236220 -0.00787402 0.00787402 -0.00787402 -0.0157480 -0.00787402 -0.00787402
2988.80 0.00000 -0.0157480 -0.00787402 -0.00787402 0.0314961 -0.0157480 -0.00787402 -0.00787402
3003.59 -0.0157480 0.00787402 -0.00787402 -0.0157480 -0.0393701 0.00000 -0.0236220 -0.00787402
3003.59 -0.00787402 -0.0157480 0.00000 -0.00787402 0.0157480 -0.00787402 0.00000 0.00000
3018.98 -0.00787402 -0.00787402 -0.00787402 -0.00787402 0.00787402 0.00000 0.00000 -0.00787402
3018.98 -0.00787402 -0.00787402 0.00000 -0.0157480 -0.00787402 -0.0157480 -0.00787402 -0.00787402
3026.45 -0.0157480 -0.0157480 0.0157480 -0.0157480 0.0393701 -0.00787402 -0.00787402 -0.0157480
3026.45 -0.00787402 -0.0157480 -0.00787402 -0.0157480 0.00787402 -0.00787402 0.00000 0.00000
3042.16 -0.0157480 -0.0314961 -0.00787402 0.00000 0.0314961 0.00000 -0.00787402 -0.0157480
3042.16 -0.0157480 -0.0236220 -0.0236220 -0.00787402 -0.0393701 0.0157480 -0.0157480 0.00000
3064.47 0.00000 0.00000 -0.0157480 -0.00787402 0.00000 0.00787402 0.00000 0.00000
3064.47 -0.00787402 0.00000 0.00000 -0.00787402 -0.0393701 -0.00787402 0.00787402 0.00787402
3092.40 0.00000 -0.00787402 -0.00787402 -0.00787402 -0.00787402 -0.00787402 -0.00787402 -0.0236220
3092.40 -0.0157480 -0.00787402 -0.00787402 -0.0157480 0.0157480 -0.00787402 -0.0157480 -0.0157480
3109.21 0.00000 -0.0236220 0.00000 0.00000 0.00000 -0.0236220 -0.00787402 0.00000
3109.21 0.00787402 -0.0157480 -0.00787402 0.00787402 0.0236220 0.00000 0.00000 -0.0157480
3114.79 -0.0157480 -0.00787402 -0.00787402 -0.0157480 -0.0787402 -0.00787402 0.00787402 -0.00787402
3114.79 -0.00787402 -0.00787402 0.00000 -0.00787402 -0.00787402 0.00787402 -0.0157480 0.00000
3131.94 -0.0157480 0.00787402 -0.0157480 -0.00787402 0.00000 0.00000 -0.00787402 -0.00787402
3131.94 -0.00787402 0.00000 -0.0157480 0.00000 -0.0157480 -0.00787402 -0.00787402 -0.0157480
3146.17 0.00000 -0.0236220 -0.0157480 0.00000 -0.0314961 -0.0236220 0.00787402 -0.0236220
3146.17 0.00000 -0.00787402 -0.0314961 -0.00787402 -0.0236220 -0.0236220 -0.00787402 -0.00787402
3154.50 0.00000 -0.0157480 -0.00787402 0.00787402 0.00000 0.00000 0.00000 0.00000
3154.50 0.00000 -0.0157480 0.00787402 -0.0157480 0.00000 -0.00787402 -0.00787402 -0.00787402
3177.03 0.00000 -0.00787402 -0.00787402 -0.00787402 -0.0314961 -0.0157480 0.00000 -0.00787402
3177.03 0.00000 -0.0236220 0.0157480 -0.0157480 -0.00787402 -0.00787402 0.00787402 -0.00787402
3184.48 0.00787402 0.00000 0.00000 0.00000 0.00000 -0.0157480 -0.00787402 -0.0157480
3184.48 -0.00787402 -0.00787402 -0.0157480 0.00000 -0.0393701 -0.00787402 -0.00787402 0.00787402
3199.47 0.00000 -0.0157480 -0.00787402 -0.0157480 -0.0236220 0.00787402 -0.0157480 -0.00787402
3199.47 0.00787402 -0.0157480 0.00000 0.00787402 -0.0157480 -0.00787402 0.00000 -0.00787402
3207.16 -0.0157480 0.00787402 -0.00787402 -0.0314961 -0.0314961 -0.00787402 -0.00787402 -0.0157480
3207.16 -0.00787402 -0.0157480 -0.0157480 0.00000 -0.0629921 -0.0157480 -0.0157480 0.00000
3222.02 -0.00787402 0.00000 -0.0157480 -0.00787402 -0.0472441 -0.00787402 -0.0157480 0.00000
3222.02 -0.0157480 0.00787402 0.00000 -0.00787402 -0.0708661 0.00787402 -0.0157480 -0.00787402
3236.74 -0.00787402 -0.0157480 -0.00787402 -0.00787402 -0.0157480 -0.0157480 -0.00787402 0.00000
3236.74 -0.0157480 -0.00787402 -0.0157480 0.00000 0.00787402 -0.00787402 0.00000 -0.00787402
3250.69 -0.00787402 -0.00787402 0.00000 0.00000 0.0393701 -0.00787402 0.00000 -0.00787402
3250.69 -0.00787402 -0.00787402 -0.00787402 -0.0157480 -0.00787402 -0.0236220 -0.00787402 -0.00787402
3266.99 -0.00787402 -0.00787402 0.00000 0.00000 -0.0157480 -0.0157480 -0.0157480 -0.00787402
3266.99 0.00000 -0.00787402 -0.00787402 -0.00787402 -0.0157480 0.00000 0.00000 -0.0236220
3274.48 0.00000 -0.0157480 0.00000 -0.00787402 -0.0472441 -0.00787402 -0.00787402 0.00787402
3274.48 -0.0236220 -0.0157480 -0.0157480 0.00787402 0.0157480 0.00787402 -0.00787402 0.00000
3281.99 0.00000 -0.00787402 -0.00787402 0.00000 -0.0314961 -0.0157480 0.00000 -0.00787402
3281.99 -0.00787402 -0.00787402 -0.0236220 -0.0157480 0.0157480 -0.00787402 -0.00787402 -0.0236220
3289.83 0.00000 0.00000 -0.0157480 -0.00787402 0.0157480 -0.0157480 -0.00787402 0.00000
3289.83 -0.0157480 0.00000 -0.0157480 0.00000 0.0157480 -0.00787402 -0.0157480 -0.00787402
3303.87 0.00000 -0.00787402 -0.00787402 0.00000 0.00787402 -0.0157480 -0.0157480 -0.00787402
3303.87 -0.00787402 0.00000 -0.00787402 -0.00787402 0.0157480 -0.00787402 0.00000 -0.0157480
3319.39 0.00787402 0.00000 -0.0157480 -0.00787402 0.0157480 0.00787402 0.00787402 0.00000
3319.39 0.00787402 -0.00787402 -0.0157480 0.00000 0.0157480 -0.0236220 0.00000 -0.0157480
3327.32 -0.00787402 -0.00787402 -0.0314961 -0.00787402 -0.0236220 -0.00787402 -0.0157480 -0.0157480
3327.32 0.00000 -0.0236220 -0.00787402 0.00000 -0.0236220 0.00000 -0.0157480 -0.00787402
3342.97 -0.00787402 -0.0157480 -0.0157480 -0.00787402 -0.0236220 -0.00787402 -0.0157480 0.00000
3342.97 -0.00787402 -0.0157480 -0.0236220 -0.00787402 0.0393701 0.00000 0.00787402 0.0157480
3349.43 0.00000 -0.00787402 0.00000 0.00000 0.00000 0.00000 0.00787402 -0.0157480
3349.43 -0.0157480 -0.00787402 0.00000 -0.00787402 0.0314961 -0.00787402 0.00000 -0.0157480
3371.96 -0.0157480 -0.0157480 0.00787402 -0.0157480 -0.0236220 0.00000 0.00000 0.00787402
3371.96 0.00000 -0.0157480 0.00787402 0.00000 -0.0472441 0.00000 0.00000 -0.00787402
3386.96 -0.00787402 0.00000 0.00787402 0.00787402 0.0157480 -0.0236220 0.00000 0.00000
3386.96 0.00000 -0.00787402 -0.00787402 -0.00787402 -0.0393701 0.00000 -0.00787402 0.00000
3401.62 -0.00787402 -0.00787402 -0.0157480 0.00000 0.0393701 -0.00787402 0.00000 -0.00787402
3401.62 -0.0236220 0.00787402 -0.0236220 -0.0157480 -0.00787402 -0.0157480 -0.00787402 0.00000
3416.77 -0.0157480 -0.00787402 -0.0157480 -0.0236220 0.0472441 -0.00787402 -0.0157480 -0.0157480
3416.77 -0.00787402 -0.0157480 0.0157480 -0.00787402 -0.0157480 -0.00787402 -0.00787402 -0.00787402
3424.86 0.00787402 -0.0157480 0.00000 0.00787402 -0.0314961 -0.00787402 -0.00787402 -0.0157480
3424.86 -0.00787402 -0.0314961 -0.00787402 -0.00787402 -0.00787402 -0.0157480 -0.00787402 0.00787402
3436.38 -0.00787402 0.00000 0.00787402 0.00000 0.00000 -0.00787402 -0.00787402 -0.00787402
3440.87 -0.00787402 0.00787402 -0.00787402 -0.00787402 -0.0314961 -0.0157480 -0.0157480 -0.0157480
3446.98 -0.0157480 0.00787402 -0.00787402 0.00000 -0.0157480 -0.00787402 -0.00787402 0.00787402
3446.98 -0.00787402 0.00787402 -0.0236220 -0.0157480 0.0157480 0.00000 -0.00787402 -0.00787402
3462.04 0.00787402 -0.0157480 -0.00787402 -0.00787402 -0.0157480 -0.00787402 0.00787402 0.00787402
3462.04 -0.00787402 -0.0157480 -0.0157480 -0.00787402 0.0157480 0.00000 -0.00787402 -0.00787402
3476.74 0.00787402 0.00000 -0.0157480 -0.0157480 0.0236220 0.00000 -0.0157480 0.00000
3476.74 0.00000 -0.0157480 -0.0157480 -0.0236220 0.0314961 0.00000 0.00787402 -0.00787402
3492.41 -0.0157480 -0.00787402 0.00000 -0.0236220 -0.0314961 -0.0236220 0.00000 0.00000
3492.41 -0.00787402 0.00000 -0.00787402 0.00787402 -0.0157480 -0.0236220 0.00000 -0.00787402
3498.76 0.00000 -0.0157480 -0.00787402 -0.00787402 -0.00787402 -0.0157480 -0.0157480 -0.0157480
3498.76 -0.0157480 -0.0236220 -0.0314961 -0.0236220 -0.0157480 0.00787402 -0.0236220 -0.00787402
3514.42 0.00000 0.00000 -0.0157480 -0.00787402 -0.0393701 0.00000 -0.0236220 0.00000
3514.42 -0.00787402 0.00787402 -0.00787402 -0.00787402 -0.0472441 0.00000 0.00000 -0.00787402
3521.77 0.00000 -0.0157480 0.00787402 -0.0236220 -0.00787402 0.00787402 -0.00787402 0.00000
3521.77 0.00000 0.00787402 0.0157480 -0.00787402 -0.00787402 -0.0236220 0.00000 0.00000
3536.98 0.00000 0.00000 0.00787402 -0.00787402 -0.0236220 0.00000 0.00000 -0.0157480
3536.98 -0.00787402 -0.00787402 0.00787402 0.00000 0.0236220 -0.00787402 -0.0157480 0.00000
3551.78 -0.00787402 -0.0157480 -0.0157480 -0.00787402 -0.0393701 -0.0157480 -0.0157480 -0.00787402
3551.78 -0.00787402 -0.0157480 -0.0157480 -0.00787402 0.0472441 -0.0157480 -0.00787402 0.00000
3559.44 0.00000 0.00000 -0.0157480 -0.0157480 -0.0314961 0.00000 -0.00787402 -0.0314961
3559.44 -0.00787402 0.00000 0.00000 0.00000 0.0236220 -0.0157480 0.00000 -0.0157480
3575.05 0.00787402 0.00787402 0.00000 0.00787402 -0.0236220 0.00000 0.00000 -0.00787402
3575.05 0.00000 0.00787402 0.00000 -0.00787402 0.0157480 0.00000 0.00000 -0.0157480
3581.88 0.00000 0.00000 -0.00787402 0.00000 0.0393701 -0.00787402 -0.00787402 0.00000
3581.88 -0.00787402 0.00000 -0.00787402 0.00000 -0.0708661 -0.00787402 -0.0157480 0.00000
3596.67 0.00000 -0.0314961 -0.0157480 -0.00787402 0.00000 -0.00787402 -0.00787402 0.00000
3596.67 0.00787402 -0.0157480 -0.0236220 0.00000 -0.0629921 0.00000 -0.00787402 0.00787402
3604.18 0.00000 -0.0157480 0.00787402 0.00000 -0.0393701 0.00000 0.00000 0.00000
3604.18 -0.00787402 0.00787402 0.00000 0.00787402 0.00000 -0.00787402 0.00000 -0.00787402
3619.48 -0.0157480 0.00787402 0.00000 -0.00787402 -0.0157480 -0.0157480 0.00000 0.00000
3619.48 -0.00787402 0.00000 0.00000 -0.0236220 -0.0314961 0.00000 0.00787402 -0.0157480
3634.80 -0.00787402 -0.00787402 -0.0236220 -0.0157480 -0.00787402 -0.00787402 0.00787402 0.00000
3634.80 0.00000 -0.00787402 -0.0157480 0.00000 0.0314961 0.00000 -0.00787402 -0.0157480
3642.48 -0.0157480 -0.00787402 -0.0157480 0.00000 0.00787402 -0.00787402 0.00787402 0.00787402
3642.48 -0.00787402 -0.00787402 -0.00787402 0.00000 -0.00787402 -0.0236220 -0.0157480 0.00000
3656.98 -0.00787402 -0.00787402 -0.0236220 -0.0236220 -0.0157480 -0.00787402 0.00000 -0.00787402
3656.98 0.00000 -0.0157480 0.00000 -0.0236220 -0.0314961 -0.0157480 -0.0157480 -0.00787402
3664.32 -0.00787402 -0.0157480 0.00000 -0.00787402 -0.0314961 -0.0314961 -0.0157480 -0.00787402
3664.32 0.00000 0.00000 -0.00787402 -0.00787402 0.0314961 0.00000 -0.00787402 -0.00787402
3677.53 -0.00787402 0.00000 -0.0157480 -0.00787402 -0.00787402 0.00787402 0.00000 0.00000
3677.53 -0.0157480 -0.00787402 -0.0157480 -0.00787402 0.00787402 0.00000 -0.00787402 0.00000
3694.48 -0.00787402 0.00787402 -0.0157480 0.00000 -0.0157480 -0.0157480 0.00000 -0.00787402
3694.48 -0.00787402 0.00000 -0.0157480 -0.00787402 -0.0157480 0.00000 -0.0157480 -0.0157480
3701.45 0.00000 -0.00787402 -0.00787402 -0.00787402 0.00787402 -0.00787402 -0.0157480 -0.0236220
3701.45 0.00000 0.00000 0.00000 0.00000 -0.0314961 -0.0157480 -0.0157480 0.00000
3716.79 -0.00787402 0.00000 0.0157480 -0.00787402 0.00000 -0.0157480 -0.00787402 -0.00787402
3716.79 -0.0157480 0.00787402 0.00000 -0.00787402 0.00000 -0.0157480 0.00000 -0.00787402
3724.49 -0.0157480 -0.0157480 0.00787402 0.00000 -0.0157480 0.00000 0.00000 0.00000
3724.49 0.00000 -0.0314961 -0.0157480 -0.0157480 0.00000 -0.00787402 0.00000 -0.00787402
3739.63 -0.00787402 0.00787402 0.00000 -0.0157480 0.0157480 0.00787402 -0.00787402 -0.00787402
3739.63 -0.0157480 -0.0157480 0.00000 0.00000 -0.0236220 -0.0157480 -0.00787402 -0.00787402
3754.39 -0.00787402 0.00000 0.0157480 -0.00787402 0.00787402 0.00000 -0.0157480 -0.00787402
3754.39 -0.00787402 0.00000 -0.00787402 -0.00787402 0.00000 -0.00787402 -0.0157480 -0.00787402
3761.66 0.0157480 -0.0236220 -0.00787402 -0.0157480 -0.0236220 -0.0236220 -0.0157480 -0.00787402
3761.66 0.00000 0.00000 0.00787402 -0.00787402 0.00787402 -0.0157480 -0.00787402 -0.0157480
3784.42 -0.0157480 -0.0157480 0.00000 0.00000 0.00787402 0.00000 0.00787402 -0.0157480
3784.42 0.00000 0.00787402 -0.0157480 0.00787402 -0.0236220 -0.00787402 0.00000 -0.00787402
3792.04 -0.00787402 0.00000 -0.00787402 -0.00787402 -0.0393701 -0.00787402 0.00787402 -0.0157480
3792.04 -0.00787402 -0.0157480 -0.0157480 -0.00787402 0.00787402 -0.0157480 -0.00787402 -0.00787402
3807.25 -0.0157480 -0.00787402 0.00000 -0.00787402 -0.00787402 0.00000 -0.0236220 -0.00787402
3807.25 -0.00787402 -0.0157480 0.00000 -0.00787402 0.00787402 -0.0157480 -0.00787402 -0.0157480
3822.10 -0.00787402 0.00000 -0.0157480 -0.0157480 -0.0472441 0.00000 -0.00787402 0.00000
3822.10 -0.00787402 -0.00787402 0.00787402 0.00000 -0.00787402 0.00000 0.00000 -0.00787402
3836.89 -0.0314961 0.00000 -0.00787402 0.00000 -0.0157480 -0.00787402 -0.0157480 -0.0236220
3836.89 -0.0157480 0.00000 -0.0236220 0.00000 -0.0393701 -0.0157480 -0.0157480 -0.0157480
3844.45 -0.00787402 0.00787402 -0.0157480 0.00787402 0.00000 -0.00787402 -0.0157480 -0.0157480
3844.45 0.00000 0.00000 -0.0157480 0.00000 -0.0472441 0.00000 0.00787402 -0.00787402
3859.45 -0.00787402 -0.0157480 0.00000 -0.0157480 0.00000 -0.00787402 0.00787402 -0.00787402
3859.45 -0.00787402 -0.00787402 -0.0236220 -0.0157480 -0.00787402 0.00000 0.00787402 0.00000
3874.78 0.00000 0.00000 0.00787402 0.00000 0.0708661 0.0157480 0.00000 0.00000
3874.78 0.00000 -0.00787402 0.00787402 0.00000 -0.0314961 -0.00787402 0.00000 -0.00787402
3881.62 0.00000 0.00000 -0.00787402 0.00000 0.00787402 -0.00787402 0.00000 -0.00787402
3881.62 -0.00787402 -0.00787402 -0.0157480 -0.00787402 -0.0157480 0.00000 -0.0157480 0.00000
3896.75 0.00787402 -0.0157480 -0.0236220 -0.00787402 -0.0157480 -0.0314961 0.00000 0.00000
3896.75 -0.00787402 -0.0157480 0.00787402 -0.00787402 0.00000 -0.00787402 -0.00787402 -0.00787402
3904.48 0.00000 0.00000 0.00000 0.00000 -0.00787402 -0.00787402 -0.00787402 -0.0157480
3904.48 -0.0157480 0.00000 -0.00787402 -0.00787402 -0.0472441 -0.0236220 -0.0157480 -0.0157480
3926.79 0.00000 -0.00787402 -0.0157480 -0.00787402 -0.0551181 -0.00787402 -0.0157480 -0.00787402
3926.79 -0.0236220 -0.0157480 -0.0157480 0.00000 -0.0157480 -0.00787402 -0.0157480 0.0157480
3942.29 -0.00787402 0.0236220 -0.00787402 -0.00787402 0.00787402 -0.0157480 -0.0157480 -0.00787402
3942.29 -0.00787402 0.00787402 0.00000 0.00000 0.00000 -0.0236220 0.00000 0.00000
3949.46 -0.00787402 0.00000 0.00000 0.00000 0.0157480 0.00787402 0.00000 0.00000
3949.46 -0.00787402 -0.0236220 -0.00787402 0.00787402 0.00000 -0.00787402 0.00000 -0.00787402
3964.86 0.00000 -0.0236220 -0.0157480 0.00787402 -0.0236220 0.00000 0.00000 -0.00787402
3964.86 0.00000 -0.0157480 0.00000 -0.0157480 0.0314961 0.00000 -0.00787402 -0.0157480
3977.46 -0.0157480 -0.00787402 0.00000 0.00787402 -0.0157480 -0.00787402 0.00000 -0.00787402
3977.46 -0.0157480 0.00787402 0.00787402 0.00787402 0.0157480 -0.00787402 0.00000 -0.00787402
3994.29 0.00000 0.00787402 -0.00787402 0.00000 -0.0157480 0.00000 -0.0157480 0.00000
3994.29 0.00787402 -0.0236220 -0.0157480 -0.0157480 -0.0393701 0.00000 -0.0157480 -0.00787402
4002.04 -0.00787402 -0.0157480 -0.00787402 -0.00787402 -0.0393701 0.00000 0.00787402 -0.00787402
4002.04 -0.0157480 0.00000 0.00000 -0.00787402 -0.0551181 0.00000 -0.00787402 -0.00787402
4016.76 -0.00787402 -0.00787402 -0.0157480 -0.0236220 -0.0236220 0.00000 -0.00787402 -0.00787402
4016.76 -0.00787402 0.00000 -0.0157480 0.00000 -0.0236220 0.00787402 -0.00787402 0.00000
4024.32 -0.00787402 -0.00787402 0.00787402 0.00000 -0.0236220 -0.0157480 0.00000 -0.00787402
4024.32 -0.0157480 0.00000 0.00000 -0.0157480 -0.0393701 -0.00787402 0.00000 0.00000
4039.44 -0.00787402 -0.00787402 0.00000 -0.00787402 0.00787402 -0.00787402 -0.00787402 -0.00787402
4039.44 -0.00787402 0.00000 0.0157480 -0.0236220 -0.0236220 -0.0157480 0.00000 0.00000
4054.44 0.00787402 0.00000 0.00000 -0.0157480 0.0157480 0.00000 -0.0157480 -0.00787402
4054.44 0.00000 -0.00787402 -0.0314961 -0.00787402 -0.0393701 0.00000 0.00000 -0.0157480
4061.95 -0.00787402 0.00000 -0.00787402 0.00000 -0.0157480 0.00787402 0.00000 -0.0157480
4061.95 0.00000 -0.00787402 0.00000 0.00787402 0.00000 0.00787402 -0.0157480 0.00000
4077.30 0.00000 -0.0157480 -0.0157480 -0.00787402 -0.00787402 0.00000 -0.00787402 -0.0157480
4077.30 -0.0157480 -0.00787402 -0.0236220 -0.00787402 -0.00787402 -0.00787402 -0.00787402 0.00000
4084.43 -0.0157480 -0.0236220 -0.00787402 0.00000 0.0157480 -0.00787402 0.00000 0.00000
4084.43 -0.0157480 -0.0157480 0.00787402 -0.00787402 -0.0157480 -0.0157480 -0.00787402 0.00000
4099.80 -0.0157480 -0.0236220 -0.00787402 -0.00787402 -0.0314961 0.00787402 0.00000 -0.00787402
4099.80 -0.00787402 0.00000 -0.0157480 0.00000 0.0236220 -0.0157480 0.00000 0.00000
4114.46 -0.00787402 0.0157480 0.00000 -0.0236220 0.0236220 -0.0157480 -0.0157480 0.00000
4114.46 -0.0157480 0.00000 0.00000 -0.0236220 0.0236220 0.00000 0.00000 -0.00787402
4121.55 0.00787402 0.00000 -0.00787402 -0.00787402 0.0236220 -0.0157480 0.00787402 -0.0157480
4121.55 -0.0157480 0.00787402 -0.00787402 -0.00787402 -0.0314961 -0.0157480 0.00000 0.00787402
4144.69 -0.0157480 -0.00787402 0.00787402 0.00787402 0.0236220 0.00000 -0.00787402 0.00000
4144.69 -0.00787402 -0.0157480 0.00787402 0.00787402 0.0157480 -0.00787402 -0.0236220 -0.0157480
4151.82 0.00787402 -0.00787402 0.00000 -0.0157480 -0.00787402 -0.0157480 -0.00787402 -0.0157480
4151.82 0.00000 0.00000 -0.0236220 -0.00787402 0.00000 -0.0157480 0.00000 -0.0236220
4166.85 0.00000 -0.00787402 -0.0314961 -0.0236220 0.0236220 0.00000 0.00000 -0.00787402
4166.85 0.00000 -0.0157480 0.00787402 0.00000 0.00000 0.00000 0.00787402 0.00000
4181.98 -0.00787402 -0.0157480 0.00000 -0.0157480 0.00787402 0.00000 -0.00787402 -0.00787402
4181.98 0.00787402 -0.00787402 -0.00787402 -0.00787402 -0.0157480 0.00000 -0.00787402 -0.00787402
4189.54 -0.00787402 -0.0157480 -0.0157480 0.00000 -0.0393701 -0.00787402 -0.0157480 0.00000
4189.54 0.00000 0.00787402 -0.0157480 0.00787402 -0.0629921 -0.00787402 -0.0157480 0.00787402
4194.34 0.00000 -0.00787402 -0.0157480 -0.00787402 -0.0629921 -0.00787402 -0.0157480 -0.0157480
4197.80 -0.0157480 0.00000 -0.00787402 -0.0157480 -0.0236220 -0.0157480 0.00787402 0.00787402
4204.47 -0.00787402 -0.0157480 0.00000 0.00000 -0.0393701 0.00000 0.00000 -0.00787402
4204.47 0.00000 -0.00787402 0.00000 -0.0157480 0.0157480 0.00000 -0.0157480 -0.0157480
4219.37 -0.00787402 -0.0157480 -0.0157480 0.00000 -0.00787402 -0.0157480 -0.0157480 -0.00787402
4219.37 0.00787402 -0.0157480 -0.0157480 -0.00787402 -0.0157480 -0.0157480 -0.0236220 0.00000
4234.42 -0.00787402 0.00787402 0.00000 0.00000 0.00000 -0.00787402 -0.00787402 -0.0157480
4234.42 0.00000 0.00000 -0.0314961 0.00000 0.0236220 -0.00787402 -0.00787402 -0.00787402
4241.99 0.00000 -0.0157480 0.00000 0.00000 0.0787402 0.00000 0.00000 -0.0157480
4241.99 0.00000 0.00000 0.00000 -0.0157480 -0.0629921 -0.00787402 -0.00787402 -0.0236220
4256.88 -0.00787402 -0.00787402 0.00787402 -0.0157480 -0.0314961 -0.0157480 -0.00787402 0.00000
4256.88 -0.0157480 0.00000 0.00000 -0.0157480 -0.0551181 0.00787402 -0.00787402 -0.00787402
4262.84 -0.00787402 0.00000 -0.00787402 -0.0157480 0.0393701 -0.0157480 0.00000 0.00787402
4262.84 -0.0236220 -0.00787402 0.0236220 -0.00787402 0.00000 -0.00787402 -0.00787402 -0.0157480
4279.43 -0.00787402 0.00000 0.00000 -0.00787402 0.00787402 -0.0157480 0.00000 0.00787402
4279.43 0.00787402 0.00000 0.00000 -0.00787402 -0.00787402 -0.00787402 -0.0236220 0.00000
4294.16 -0.0157480 -0.00787402 -0.00787402 -0.0157480 0.0157480 -0.0157480 0.00000 -0.00787402
4294.16 -0.0236220 -0.0236220 0.00000 -0.00787402 -0.0157480 -0.00787402 0.00000 -0.0236220
4301.90 -0.00787402 -0.0157480 -0.00787402 -0.00787402 -0.0314961 0.00000 -0.00787402 -0.0157480
4301.90 -0.0157480 -0.00787402 -0.0157480 -0.0157480 -0.0314961 0.00787402 -0.0157480 -0.00787402
4316.96 -0.0157480 -0.0157480 -0.00787402 0.00000 -0.0472441 0.00000 0.00000 -0.0157480
4316.96 0.00787402 0.00000 -0.0236220 -0.00787402 -0.0157480 -0.00787402 -0.00787402 0.00787402
4324.49 -0.0157480 0.00000 -0.0393701 -0.00787402 0.0236220 0.00000 -0.00787402 0.00787402
4324.49 0.00000 -0.00787402 0.00000 0.00000 -0.00787402 0.00000 0.00000 -0.00787402
4339.53 0.00787402 -0.00787402 0.00000 0.00787402 -0.0157480 0.00787402 0.00000 -0.0157480
4339.53 -0.0157480 -0.0157480 0.00000 -0.0236220 0.00787402 0.00000 0.00000 0.00000
4354.39 -0.00787402 0.00000 -0.0157480 -0.0157480 0.0236220 0.00000 -0.00787402 -0.0157480
4354.39 0.00787402 0.00000 0.00787402 0.0157480 -0.0314961 -0.0157480 0.00000 -0.0157480
4361.87 -0.0157480 0.00000 -0.0157480 0.00787402 -0.0236220 -0.0157480 0.00787402 -0.00787402
4361.87 -0.00787402 -0.00787402 -0.0236220 -0.0157480 -0.0157480 -0.0236220 0.00000 -0.0157480
4376.81 0.00787402 -0.0157480 -0.00787402 -0.0236220 0.00787402 -0.0157480 0.00787402 -0.00787402
4376.81 -0.0236220 0.00000 -0.00787402 0.00000 -0.0157480 0.00000 -0.00787402 -0.00787402
4384.39 -0.00787402 0.00000 -0.0157480 -0.00787402 -0.0314961 -0.00787402 0.00000 -0.00787402
4384.39 -0.00787402 -0.00787402 -0.00787402 0.00000 -0.0157480 -0.0157480 -0.0157480 -0.00787402
4399.30 -0.00787402 -0.0236220 -0.00787402 -0.0157480 -0.00787402 -0.0157480 -0.0157480 0.00787402
4399.30 0.00787402 -0.0157480 0.00000 -0.0157480 0.0629921 -0.0157480 -0.00787402 0.00000
4414.45 -0.00787402 0.00000 0.00000 0.00000 0.00787402 0.00787402 0.00000 -0.00787402
4414.45 0.00000 -0.00787402 0.00787402 -0.00787402 -0.0236220 -0.00787402 0.00000 -0.0157480
4421.82 -0.00787402 -0.00787402 -0.0157480 -0.00787402 0.0157480 -0.00787402 -0.0157480 -0.00787402
4421.82 -0.00787402 -0.0157480 -0.0236220 0.00787402 -0.0157480 -0.00787402 0.00787402 0.00787402
4436.92 -0.0157480 -0.0157480 -0.0157480 0.00787402 -0.0393701 -0.0157480 -0.00787402 0.00787402
4436.92 -0.00787402 0.00000 -0.0157480 0.00000 -0.0472441 0.00000 0.00000 -0.00787402
4444.43 -0.00787402 0.00000 0.00787402 -0.00787402 -0.00787402 -0.0236220 -0.00787402 -0.00787402
4444.43 0.00787402 -0.0157480 -0.0157480 0.00000 -0.0393701 -0.0157480 0.00000 -0.00787402
4466.93 0.00000 0.00787402 -0.0157480 0.00000 -0.0393701 0.00000 -0.00787402 -0.00787402
4466.93 -0.0157480 0.0157480 -0.00787402 0.00000 0.00787402 -0.00787402 0.00000 -0.0157480
4481.77 -0.00787402 -0.00787402 0.00787402 -0.0157480 0.00000 -0.00787402 -0.0157480 -0.00787402
4481.77 0.00000 0.00000 -0.0157480 -0.0157480 -0.0236220 0.00787402 -0.00787402 -0.0157480
4489.27 -0.00787402 -0.00787402 -0.0314961 -0.00787402 -0.0314961 0.00000 0.00000 -0.00787402
4489.27 -0.0157480 0.00000 -0.0157480 -0.00787402 0.0157480 -0.0236220 0.00000 -0.0157480
4504.44 -0.00787402 0.00787402 -0.00787402 0.00000 0.00000 -0.0236220 -0.00787402 0.00000
4504.44 -0.00787402 -0.00787402 -0.00787402 -0.00787402 -0.0157480 -0.0157480 -0.00787402 0.00787402
4519.46 -0.00787402 -0.00787402 -0.0157480 0.00000 -0.0314961 0.00787402 0.00787402 0.00000
4519.46 0.00000 -0.00787402 -0.0157480 -0.00787402 -0.0236220 0.00000 0.00000 -0.00787402
4534.49 0.00000 -0.00787402 -0.0157480 0.00000 -0.00787402 -0.0157480 -0.00787402 0.00000
4534.49 -0.00787402 -0.0157480 0.00000 0.00787402 -0.0236220 0.0157480 -0.00787402 -0.0157480
4542.45 0.00787402 -0.0157480 -0.00787402 -0.00787402 -0.0393701 0.00000 -0.00787402 0.00000
4542.45 0.00000 0.00787402 0.0157480 -0.00787402 0.00000 -0.00787402 -0.0236220 -0.00787402
4557.84 0.00000 0.00787402 0.00787402 0.00000 -0.0314961 -0.0236220 -0.0157480 -0.00787402
4557.84 0.00000 -0.00787402 -0.0157480 0.00000 -0.0314961 -0.0157480 0.00000 -0.00787402
4564.56 -0.00787402 -0.00787402 -0.0393701 -0.00787402 -0.0551181 -0.0157480 -0.00787402 -0.00787402
4564.56 -0.00787402 0.00000 -0.0157480 -0.0157480 0.0157480 0.00787402 -0.00787402 0.00000
4579.44 -0.0157480 0.00000 -0.0236220 -0.00787402 -0.0472441 -0.00787402 -0.0157480 0.00000
4579.44 -0.0157480 -0.00787402 0.00787402 -0.0157480 0.0236220 -0.0157480 -0.0157480 0.00787402
4586.86 -0.0236220 0.00000 0.00787402 -0.0157480 -0.00787402 -0.00787402 -0.00787402 -0.00787402
4586.86 0.00000 0.00787402 -0.0157480 -0.0157480 -0.0787402 -0.0236220 0.00000 -0.00787402
4590.11 0.00000 0.00000 -0.0157480 -0.0157480 -0.0157480 0.00000 0.00000 -0.00787402
4593.86 -0.00787402 0.00787402 -0.00787402 0.00000 0.00000 -0.00787402 -0.00787402 -0.0157480
4601.93 -0.00787402 -0.00787402 0.0157480 0.00000 0.0157480 -0.00787402 0.00000 -0.00787402
4601.93 -0.00787402 -0.0236220 0.00000 0.00000 0.0236220 0.00000 0.00000 -0.00787402
4624.50 0.00787402 -0.0157480 -0.00787402 0.00000 -0.00787402 -0.0236220 -0.00787402 0.00000
4624.50 -0.00787402 -0.0236220 -0.0157480 -0.0236220 0.0236220 -0.00787402 0.00000 -0.00787402
4631.92 0.00787402 0.00000 -0.00787402 -0.0157480 0.0157480 0.00000 0.00787402 -0.00787402
4631.92 0.00000 -0.00787402 -0.00787402 0.00000 0.0236220 0.00000 -0.0157480 -0.0157480
4645.34 -0.0157480 -0.0236220 0.00787402 -0.00787402 0.0157480 0.00787402 -0.00787402 -0.0157480
4645.34 -0.0157480 -0.00787402 0.00000 0.00000 -0.0236220 -0.00787402 -0.0236220 -0.00787402
4654.43 0.00000 0.00000 0.00787402 0.0157480 0.0236220 -0.00787402 -0.00787402 0.00000
4654.43 0.00787402 0.00000 0.00000 0.00787402 0.0236220 -0.0157480 -0.00787402 -0.0157480
4661.90 -0.00787402 -0.0236220 -0.00787402 0.00000 0.0393701 -0.00787402 -0.00787402 0.00000
4661.90 0.00000 -0.00787402 -0.00787402 -0.00787402 -0.0157480 0.00000 -0.00787402 0.00787402
4669.45 -0.00787402 0.00000 -0.00787402 -0.00787402 -0.0472441 -0.00787402 0.00000 0.00000
4669.45 0.00000 0.00787402 -0.0157480 -0.0157480 0.00787402 -0.0157480 0.00000 -0.00787402
4677.27 -0.00787402 -0.00787402 -0.00787402 -0.0157480 0.0157480 -0.0157480 0.00000 -0.0157480
4677.27 -0.0157480 -0.0157480 -0.00787402 -0.0157480 -0.0472441 -0.0157480 0.00000 -0.00787402
4684.35 -0.0157480 0.00000 -0.0157480 -0.0157480 -0.00787402 -0.00787402 -0.0157480 0.00000
4684.35 -0.00787402 0.00000 -0.0157480 -0.0157480 -0.00787402 -0.00787402 0.00787402 -0.0157480
4699.45 -0.0157480 -0.00787402 -0.00787402 0.00000 0.00787402 -0.00787402 0.00787402 -0.00787402
4699.45 -0.0157480 -0.00787402 -0.0236220 -0.00787402 0.00000 0.0157480 0.0157480 0.00787402
4707.36 -0.00787402 -0.0157480 -0.00787402 -0.0157480 0.0236220 -0.0157480 0.00000 -0.00787402
4707.36 -0.00787402 -0.0157480 -0.00787402 -0.00787402 0.00000 -0.0157480 -0.00787402 -0.0236220
4714.44 -0.00787402 -0.00787402 -0.0236220 -0.0157480 -0.0551181 -0.00787402 0.00000 0.00000
4714.44 0.0236220 0.00787402 -0.0157480 -0.00787402 -0.0157480 -0.00787402 -0.0236220 -0.00787402
4721.55 -0.0157480 -0.00787402 -0.0157480 -0.00787402 0.00000 0.00000 -0.0236220 0.00000
4721.55 -0.00787402 -0.0157480 0.00787402 -0.0157480 -0.0236220 0.00000 -0.00787402 0.0157480
4744.55 0.00000 -0.00787402 0.0157480 -0.00787402 -0.00787402 0.00000 -0.00787402 -0.00787402
4744.55 -0.00787402 -0.00787402 0.00787402 -0.00787402 0.00787402 -0.00787402 0.00000 -0.00787402
4749.39 0.00787402 0.00000 0.00000 -0.00787402 0.0472441 -0.0236220 0.00000 -0.0236220
4749.39 0.00787402 -0.0236220 -0.0157480 0.00787402 -0.0236220 -0.0157480 -0.0157480 -0.00787402
4766.91 -0.00787402 -0.0236220 -0.0157480 0.0157480 -0.0157480 0.00000 -0.00787402 -0.0157480
4766.91 -0.00787402 -0.00787402 -0.0157480 0.00000 0.00000 -0.00787402 0.00000 -0.0157480
4774.96 0.00787402 0.00787402 -0.0236220 -0.00787402 -0.0157480 -0.00787402 -0.00787402 -0.00787402
4774.96 -0.0157480 -0.00787402 -0.00787402 -0.0157480 -0.0157480 -0.0157480 0.00000 -0.00787402
4781.93 -0.0157480 -0.00787402 0.00000 -0.0157480 -0.00787402 -0.0157480 -0.00787402 -0.00787402
4781.93 0.00000 -0.0157480 0.00000 -0.0157480 -0.0157480 -0.00787402 0.00787402 -0.0157480
4789.08 -0.00787402 -0.0236220 -0.00787402 0.00787402 -0.0472441 -0.00787402 -0.00787402 0.00787402
4789.08 -0.0157480 0.00787402 -0.00787402 -0.0157480 -0.0393701 -0.00787402 -0.00787402 0.00787402
4796.96 0.00000 -0.00787402 0.00000 -0.0157480 -0.0236220 0.00000 -0.0157480 0.00787402
4796.96 -0.00787402 -0.00787402 -0.0314961 0.00787402 -0.0157480 0.00000 -0.0236220 -0.00787402
4804.42 -0.00787402 -0.0157480 0.00000 0.00000 -0.0236220 -0.00787402 -0.00787402 -0.00787402
4804.42 -0.00787402 0.00787402 -0.00787402 0.00000 -0.00787402 0.00787402 -0.00787402 -0.00787402
4819.24 0.00000 0.00000 -0.0157480 -0.00787402 -0.0236220 -0.0157480 -0.00787402 -0.00787402
4819.24 0.00000 -0.00787402 -0.00787402 -0.0236220 0.00787402 -0.00787402 -0.00787402 -0.00787402
4827.76 0.00000 0.00787402 -0.0157480 -0.0157480 -0.0236220 -0.00787402 0.00000 -0.00787402
4827.76 -0.00787402 -0.00787402 -0.0157480 0.00787402 0.00787402 -0.0157480 -0.00787402 -0.00787402
4834.43 -0.00787402 -0.0157480 0.0236220 -0.00787402 0.00000 -0.0157480 -0.00787402 -0.00787402
4834.43 0.00000 -0.00787402 -0.0314961 0.00000 -0.0314961 0.00000 0.00000 -0.0236220
4842.00 -0.00787402 0.00000 -0.0157480 0.00787402 -0.0314961 -0.00787402 0.00000 -0.00787402
4842.00 -0.00787402 -0.00787402 0.00787402 0.00000 -0.0314961 -0.00787402 0.00000 0.00000
4854.85 0.00000 0.0157480 -0.0157480 0.00000 0.00000 0.0157480 0.00000 -0.00787402
4854.85 -0.00787402 -0.0157480 0.00787402 -0.0157480 0.0236220 0.00000 0.00000 0.00000
4864.43 0.00000 -0.0157480 -0.0236220 0.00000 -0.0157480 0.00000 -0.00787402 -0.0157480
4864.43 0.00000 -0.0157480 -0.0157480 -0.00787402 -0.0157480 0.00000 -0.00787402 -0.00787402
4887.65 -0.0157480 0.00000 0.00000 -0.0157480 -0.0393701 -0.00787402 0.00000 -0.00787402
4887.65 -0.00787402 0.00000 0.00000 0.00000 -0.0393701 -0.00787402 0.00000 0.00000
4901.99 0.00000 0.0157480 0.00000 -0.00787402 0.00000 -0.0236220 -0.00787402 0.00000
4901.99 -0.00787402 -0.00787402 -0.0157480 0.00000 0.0157480 0.00000 -0.00787402 0.00000
4907.74 0.00000 -0.00787402 -0.0236220 -0.0157480 0.0157480 0.00787402 0.00000 -0.00787402
4907.74 -0.0157480 -0.0157480 -0.00787402 -0.00787402 -0.0314961 0.00000 -0.0157480 -0.0157480
4916.28 -0.00787402 -0.0314961 0.00000 -0.0157480 0.0393701 0.00000 0.00000 0.00000
4916.28 0.00000 -0.00787402 0.00787402 -0.0157480 0.00787402 0.00000 -0.0157480 -0.00787402
4931.90 -0.00787402 0.00000 -0.00787402 -0.0157480 0.00787402 -0.00787402 0.00000 -0.00787402
4931.90 0.00787402 -0.00787402 -0.0157480 -0.00787402 0.0157480 0.00000 -0.00787402 -0.00787402
4939.44 -0.00787402 -0.0236220 0.00000 -0.00787402 -0.0551181 0.00000 -0.00787402 -0.00787402
4939.44 0.00787402 -0.0157480 0.00787402 -0.00787402 -0.0236220 -0.0236220 -0.00787402 -0.0157480
4946.79 -0.00787402 -0.00787402 -0.00787402 -0.00787402 0.00787402 0.00000 -0.0157480 0.00000
4946.79 -0.0157480 -0.00787402 -0.0157480 -0.00787402 -0.00787402 -0.00787402 0.00000 -0.0157480
4962.29 -0.00787402 -0.00787402 -0.00787402 0.00000 -0.0314961 0.00000 0.00000 0.00000
4962.29 -0.00787402 -0.0157480 -0.00787402 -0.00787402 0.00000 -0.0157480 -0.00787402 0.00787402
4968.97 -0.00787402 -0.0157480 0.00787402 -0.0157480 0.00787402 -0.0157480 -0.00787402 -0.0157480
4968.97 0.00000 -0.0157480 -0.00787402 0.00000 0.00787402 0.00787402 -0.0157480 -0.00787402
4984.40 -0.0157480 -0.00787402 0.00787402 0.00000 -0.0236220 -0.00787402 0.00000 0.00000
4984.40 -0.00787402 -0.00787402 0.00000 -0.0157480 0.0157480 -0.0157480 -0.00787402 -0.00787402
4991.94 -0.0236220 0.0157480 -0.0157480 0.0157480 0.00000 -0.00787402 0.00787402 -0.00787402
4991.94 -0.00787402 -0.00787402 -0.00787402 0.00787402 0.0157480 -0.00787402 -0.00787402 -0.0157480
5006.68 -0.0157480 -0.0236220 -0.0314961 -0.00787402 -0.00787402 0.00787402 -0.0157480 0.00000
5006.68 0.00000 -0.0157480 -0.0157480 0.00000 0.0157480 0.00000 -0.00787402 0.00000
5021.95 -0.00787402 -0.00787402 -0.00787402 -0.00787402 -0.0236220 -0.0157480 0.00000 -0.00787402
5021.95 -0.00787402 0.00000 -0.0236220 -0.0157480 -0.0314961 -0.00787402 -0.0157480 0.00000
5029.49 0.00000 -0.0157480 -0.0157480 -0.00787402 -0.0393701 0.00000 -0.0157480 -0.00787402
5029.49 0.00000 0.00000 0.00000 -0.0157480 0.0236220 -0.00787402 -0.00787402 0.00000
5050.10 0.00000 0.00000 0.00000 -0.0157480 0.0314961 0.00000 0.00787402 -0.0157480
5050.10 0.00000 -0.00787402 0.00000 -0.0157480 0.0157480 0.00000 -0.00787402 0.00787402
5059.79 -0.00787402 -0.00787402 -0.0157480 -0.0157480 -0.0314961 -0.00787402 -0.0236220 -0.00787402
5059.79 0.00000 -0.00787402 -0.0157480 -0.0157480 0.00787402 -0.00787402 0.00000 -0.0157480
5081.33 -0.00787402 -0.00787402 -0.0236220 -0.0157480 0.0787402 0.00000 -0.00787402 -0.00787402
5081.33 0.00000 0.0157480 0.00000 0.00787402 -0.0236220 -0.0157480 0.00000 -0.00787402
5096.95 -0.0157480 -0.0236220 -0.0236220 0.00000 -0.0393701 -0.0157480 -0.0157480 -0.0157480
5096.95 -0.0236220 -0.0236220 -0.0157480 0.00000 -0.00787402 -0.00787402 -0.00787402 -0.00787402
5104.70 0.00000 -0.00787402 -0.0236220 0.00000 0.0157480 0.00000 -0.00787402 -0.00787402
5104.70 -0.00787402 -0.0157480 -0.00787402 -0.00787402 -0.0157480 0.00000 0.00000 0.00000
5126.94 0.00000 -0.0157480 0.00000 -0.00787402 0.00787402 -0.0157480 -0.0157480 0.00000
5126.94 -0.00787402 0.00787402 -0.00787402 0.00000 -0.0629921 -0.00787402 -0.0157480 -0.00787402
5141.99 0.00787402 0.00787402 0.00000 0.00787402 0.0157480 -0.00787402 -0.00787402 0.00000
5141.99 0.00000 -0.00787402 -0.0157480 -0.0157480 -0.0551181 -0.00787402 0.00000 -0.00787402
5149.44 -0.0157480 -0.0236220 0.00000 -0.00787402 0.0236220 -0.00787402 0.00000 -0.00787402
5149.44 -0.00787402 -0.0157480 0.00000 0.00000 0.00000 0.00000 0.00787402 0.00000
5164.44 0.00000 -0.00787402 -0.0236220 -0.00787402 0.0157480 -0.00787402 -0.00787402 0.00787402
5164.44 -0.00787402 -0.00787402 -0.0157480 -0.0157480 -0.0236220 -0.00787402 -0.00787402 0.00000
5194.48 0.00000 -0.0236220 0.00787402 -0.00787402 -0.0157480 -0.00787402 -0.00787402 0.00787402
5194.48 -0.00787402 -0.00787402 0.00787402 0.00000 0.0944882 -0.0157480 -0.0157480 -0.00787402
5209.38 -0.0314961 -0.00787402 0.00787402 -0.00787402 -0.0157480 -0.0157480 -0.00787402 0.00787402
5209.38 -0.0157480 -0.0314961 -0.00787402 0.00787402 0.00000 -0.00787402 -0.00787402 -0.00787402
5216.88 -0.00787402 -0.00787402 -0.0157480 0.00000 0.00000 0.00000 -0.00787402 -0.0157480
5216.88 0.00000 0.00000 -0.00787402 -0.00787402 -0.0314961 0.00787402 -0.0157480 -0.00787402
5224.33 -0.00787402 0.00000 0.00000 0.0157480 -0.0157480 0.00787402 0.00000 -0.0157480
5224.33 0.00000 0.00000 0.00000 0.00000 0.00000 0.00000 -0.00787402 -0.00787402
5239.41 0.00000 0.00787402 -0.00787402 0.00787402 0.00787402 -0.00787402 0.00000 -0.0157480
5239.41 0.00000 0.00000 0.00000 -0.00787402 -0.0314961 -0.0157480 -0.0157480 0.00000
5254.39 0.00000 -0.0236220 -0.0157480 -0.00787402 -0.0393701 0.00000 0.00787402 0.00000
5254.39 0.00000 0.00000 -0.00787402 -0.0157480 0.0393701 -0.0157480 0.00000 0.00000
5261.94 -0.00787402 -0.00787402 -0.00787402 0.00000 0.0157480 -0.0157480 0.00787402 0.00787402
5261.94 -0.00787402 -0.00787402 0.00787402 -0.00787402 -0.0393701 -0.0157480 0.00000 0.00000
5284.59 0.00787402 0.00787402 -0.00787402 0.00000 0.00000 0.00000 -0.00787402 -0.0236220
5284.59 0.00000 0.00000 -0.00787402 -0.0157480 0.0236220 0.00000 -0.00787402 -0.00787402
5299.50 -0.00787402 0.00000 -0.0236220 0.00787402 0.0629921 0.00000 0.00000 -0.0157480
5299.50 0.00000 0.00787402 -0.0236220 0.00000 0.00787402 -0.00787402 -0.00787402 -0.0157480
5314.04 -0.00787402 -0.00787402 -0.00787402 -0.00787402 -0.0629921 -0.0157480 -0.00787402 0.00000
5314.04 -0.0236220 0.00000 0.00000 -0.00787402 -0.00787402 0.00000 0.00787402 -0.00787402
5328.95 -0.0236220 -0.00787402 -0.00787402 -0.0157480 -0.00787402 -0.00787402 -0.0157480 -0.0157480
5328.95 -0.0157480 -0.0157480 0.00000 -0.0157480 -0.0314961 0.0157480 0.00000 -0.00787402
5335.26 -0.00787402 -0.0157480 0.00000 -0.00787402 -0.0157480 -0.00787402 0.00000 -0.00787402
5335.26 0.00000 -0.00787402 -0.00787402 -0.0236220 0.0157480 -0.00787402 -0.00787402 -0.0157480
5359.66 0.00000 -0.00787402 0.00787402 -0.00787402 0.00787402 -0.0157480 -0.0157480 0.00000
5359.66 -0.00787402 -0.0157480 -0.0236220 0.00000 0.0157480 -0.0157480 0.00000 -0.0157480
5366.92 -0.00787402 0.00000 -0.0236220 -0.0157480 0.00000 0.00000 -0.00787402 0.00000
5366.92 -0.00787402 0.00000 0.00000 0.00787402 -0.0236220 0.00000 -0.0157480 0.00787402
5375.36 -0.00787402 -0.00787402 -0.00787402 -0.00787402 -0.0157480 0.00000 -0.0157480 -0.00787402
5375.36 -0.0236220 -0.00787402 -0.00787402 -0.00787402 -0.00787402 -0.00787402 -0.00787402 -0.0157480
5381.88 -0.00787402 -0.0157480 -0.00787402 0.00000 -0.0236220 -0.0157480 -0.0157480 -0.00787402
5381.88 -0.00787402 -0.0236220 -0.0236220 -0.00787402 -0.0157480 -0.0236220 -0.0157480 -0.00787402
5389.99 0.00787402 -0.00787402 0.00000 -0.00787402 0.00787402 0.00000 0.00000 0.00000
5389.99 0.00000 0.00787402 -0.00787402 0.00000 -0.0236220 0.00787402 0.00000 0.00000
5404.36 -0.0236220 0.00000 -0.00787402 -0.0157480 -0.00787402 -0.00787402 -0.00787402 0.00000
5404.36 0.00000 0.0157480 0.00000 -0.0157480 0.0157480 -0.0236220 -0.0157480 0.00787402
5412.03 0.00000 -0.00787402 -0.0236220 0.00000 0.00787402 -0.0236220 0.00000 -0.00787402
5412.03 0.00000 -0.0236220 -0.0314961 -0.0157480 -0.0393701 0.00000 -0.00787402 0.00000
5419.36 0.00000 -0.0314961 0.00000 -0.0157480 0.0236220 -0.00787402 -0.00787402 -0.00787402
5419.36 -0.00787402 -0.0236220 0.00787402 -0.0157480 0.0236220 0.00000 -0.00787402 0.00000
5434.42 -0.0236220 0.0157480 0.00787402 -0.0157480 0.0472441 0.00000 -0.0157480 -0.00787402
5434.42 -0.00787402 0.00787402 0.00000 0.00787402 0.0393701 -0.00787402 -0.00787402 -0.0236220
5442.32 0.00000 -0.00787402 -0.00787402 0.00000 -0.0157480 -0.00787402 0.00787402 -0.00787402
5442.32 0.00000 -0.00787402 -0.0157480 0.00000 -0.0393701 -0.00787402 0.00000 -0.0157480
5456.85 0.00787402 -0.0157480 -0.0157480 -0.0157480 -0.0236220 0.00000 -0.00787402 0.00000
5456.85 0.00000 -0.0157480 -0.0157480 0.00000 0.0314961 0.00000 -0.00787402 0.00787402
5464.37 -0.0157480 -0.0157480 -0.0157480 -0.0157480 -0.00787402 -0.00787402 -0.0157480 -0.00787402
5464.37 0.00000 -0.0157480 -0.00787402 -0.00787402 -0.0314961 -0.0157480 -0.0157480 0.00000
5471.99 -0.00787402 0.00000 -0.00787402 0.00787402 0.0472441 -0.00787402 -0.0157480 -0.0157480
5471.99 -0.0236220 0.00787402 -0.00787402 0.00000 -0.0393701 0.00000 -0.00787402 0.00000
5486.90 -0.0157480 -0.00787402 -0.00787402 0.00787402 0.00787402 0.00000 -0.00787402 0.00000
5486.90 -0.0157480 -0.0157480 0.00000 -0.0157480 -0.0314961 -0.0157480 -0.00787402 -0.00787402
5516.89 0.00000 -0.0236220 -0.0236220 -0.0157480 -0.0236220 -0.00787402 0.00000 0.00000
5516.89 0.00000 -0.00787402 -0.0236220 -0.00787402 -0.0314961 -0.00787402 -0.00787402 0.00000
5524.76 0.00787402 -0.0157480 -0.0157480 -0.00787402 0.00000 -0.00787402 0.00000 -0.00787402
5524.76 -0.00787402 -0.0157480 -0.0157480 0.00000 0.0314961 0.00000 0.00000 -0.0157480
5539.83 -0.00787402 0.00000 -0.0157480 0.00000 0.0157480 -0.00787402 -0.00787402 0.00000
5539.83 -0.00787402 -0.00787402 0.00000 0.00787402 -0.0157480 0.00000 -0.00787402 -0.00787402
5544.73 -0.0157480 0.00787402 -0.00787402 0.00000 0.00787402 0.00000 -0.00787402 -0.00787402
5544.73 -0.00787402 -0.0157480 0.00000 0.0157480 -0.00787402 -0.00787402 -0.0157480 -0.00787402
5554.34 -0.0157480 -0.00787402 0.00000 -0.00787402 -0.0393701 -0.00787402 -0.0157480 -0.0157480
5554.34 -0.00787402 -0.00787402 -0.00787402 -0.00787402 0.00000 -0.0157480 0.00000 0.00787402
5561.99 -0.00787402 -0.00787402 0.0236220 0.00787402 -0.0472441 -0.00787402 0.00000 -0.0157480
5561.99 -0.00787402 -0.0314961 -0.00787402 -0.0236220 0.00787402 -0.0157480 -0.00787402 -0.00787402
5569.48 0.00000 0.00000 -0.0236220 -0.0236220 -0.00787402 0.00000 0.00000 -0.00787402
5569.48 -0.0236220 0.00000 -0.0393701 -0.0157480 0.00787402 -0.0157480 -0.00787402 0.00787402
5577.20 0.00000 0.00787402 -0.00787402 -0.0157480 -0.0393701 -0.00787402 0.00787402 0.00787402
5577.20 -0.00787402 0.00787402 0.00787402 -0.00787402 0.0314961 0.00000 -0.00787402 -0.00787402
5584.24 0.00000 -0.00787402 0.00787402 -0.00787402 0.00000 -0.00787402 -0.0236220 0.00787402
5584.24 -0.0236220 -0.0314961 -0.00787402 -0.00787402 0.0393701 0.00787402 -0.00787402 -0.00787402
5591.97 -0.0157480 -0.0157480 -0.00787402 -0.00787402 0.00000 -0.0157480 -0.0157480 0.00787402
5591.97 -0.0157480 -0.0314961 0.00000 0.00787402 -0.0314961 -0.00787402 0.00000 -0.0157480
5607.32 -0.00787402 0.00000 0.00000 0.00000 -0.0393701 -0.0157480 0.00787402 -0.00787402
5607.32 0.00000 0.00000 0.00787402 -0.00787402 -0.0236220 -0.00787402 0.00787402 0.00000
5621.90 -0.0157480 -0.00787402 -0.0236220 -0.00787402 0.00000 -0.0157480 0.00000 -0.00787402
5621.90 0.00787402 0.00787402 -0.00787402 -0.0314961 -0.0157480 -0.00787402 -0.00787402 -0.00787402
5636.90 -0.0157480 -0.00787402 -0.0157480 0.00000 -0.0236220 0.00000 -0.00787402 -0.0157480
5636.90 0.00000 0.00000 -0.00787402 -0.00787402 -0.0236220 0.00787402 0.00000 -0.00787402
5674.65 -0.00787402 0.00787402 -0.00787402 0.00000 -0.0157480 0.00787402 -0.00787402 0.00000
5674.65 -0.00787402 0.00000 -0.00787402 -0.00787402 -0.00787402 0.00000 -0.0157480 -0.00787402
5681.74 0.00000 -0.00787402 -0.0157480 -0.00787402 -0.0472441 -0.00787402 -0.00787402 -0.0157480
5681.74 -0.00787402 0.00000 -0.0314961 0.00000 0.00000 -0.00787402 0.00000 -0.00787402
5688.87 0.00000 -0.00787402 -0.0157480 -0.00787402 -0.0157480 -0.0157480 0.00787402 0.00000
5688.87 -0.00787402 0.00787402 -0.00787402 0.00787402 -0.0472441 -0.00787402 0.00787402 -0.00787402
5704.40 0.00787402 -0.0236220 -0.0236220 -0.00787402 -0.00787402 0.00000 -0.00787402 -0.00787402
5704.40 -0.00787402 -0.0157480 0.00000 -0.00787402 -0.0314961 0.00787402 -0.00787402 -0.00787402
5711.89 -0.00787402 -0.0236220 -0.00787402 0.00000 0.0236220 0.00000 -0.0157480 -0.00787402
5711.89 0.00000 -0.0157480 0.00787402 -0.00787402 0.0551181 0.00000 -0.00787402 -0.0236220
5719.35 -0.00787402 0.00787402 -0.00787402 -0.00787402 0.0157480 -0.0157480 -0.0236220 -0.00787402
5719.35 -0.00787402 0.00787402 -0.0314961 0.00000 0.00787402 -0.0236220 -0.00787402 -0.00787402
5724.91 0.00000 0.00000 -0.00787402 0.00787402 0.00787402 -0.00787402 -0.00787402 -0.0157480
5724.91 0.00000 0.00000 -0.00787402 -0.0157480 -0.00787402 -0.00787402 0.00000 0.00000
5734.93 0.00000 -0.00787402 -0.0157480 -0.00787402 0.00787402 -0.00787402 -0.00787402 -0.00787402
5734.93 -0.0157480 -0.0236220 -0.00787402 -0.0157480 -0.0157480 -0.0157480 -0.00787402 -0.00787402
5742.51 0.00000 0.00000 -0.00787402 0.00000 0.00000 0.00787402 0.0157480 0.00787402
5742.51 -0.00787402 -0.00787402 -0.00787402 0.00000 0.0314961 0.00000 0.00787402 0.00000
5757.31 -0.00787402 0.00000 -0.0157480 -0.00787402 0.0157480 -0.00787402 0.00000 0.00000
5757.31 -0.0157480 -0.0157480 0.00000 0.00000 -0.0157480 -0.00787402 -0.0157480 -0.00787402
5771.81 0.00000 -0.00787402 0.0157480 0.00000 -0.0157480 -0.00787402 -0.00787402 0.00000
5771.81 0.00000 -0.0236220 -0.0314961 0.00787402 0.00787402 0.00000 -0.00787402 -0.00787402
5786.89 -0.0157480 0.00787402 -0.00787402 -0.00787402 0.00787402 -0.0236220 0.00787402 -0.0157480
5786.89 -0.0236220 0.00000 -0.0236220 -0.0236220 0.0157480 -0.00787402 0.00000 0.00000
5794.43 -0.00787402 -0.00787402 -0.0157480 -0.00787402 -0.0157480 0.00787402 -0.00787402 -0.00787402
5794.43 -0.0157480 0.0157480 0.00000 0.00000 0.0236220 0.00787402 -0.00787402 0.00000
5816.92 0.00000 -0.00787402 0.0157480 -0.00787402 -0.00787402 -0.00787402 -0.0236220 -0.0157480
5816.92 0.00787402 -0.00787402 0.00787402 -0.00787402 -0.0708661 -0.0157480 0.00000 0.00000
5824.92 -0.00787402 -0.0236220 0.00000 -0.0157480 -0.0236220 -0.0236220 -0.00787402 -0.0157480
5824.92 -0.0157480 -0.00787402 -0.0157480 -0.0157480 0.00000 0.00000 -0.00787402 0.00787402
5839.34 0.00000 -0.0157480 -0.0236220 0.00787402 -0.0314961 0.00000 -0.00787402 -0.0157480
5839.34 -0.00787402 -0.00787402 0.00000 0.00787402 -0.0472441 -0.00787402 0.00000 -0.00787402
5861.22 -0.00787402 0.00787402 -0.00787402 -0.0157480 -0.0787402 -0.0157480 0.00000 -0.0157480
5861.22 0.00000 -0.0157480 -0.00787402 -0.00787402 0.0157480 0.00787402 0.00787402 0.00787402
5869.35 0.00000 -0.00787402 0.00000 0.00000 0.00000 0.00000 -0.00787402 0.00787402
5869.35 -0.00787402 -0.0236220 -0.00787402 -0.0157480 -0.0314961 -0.0157480 0.00000 -0.00787402
5891.77 -0.0236220 -0.00787402 0.00000 0.00000 0.0157480 0.00787402 -0.00787402 -0.00787402
5891.77 0.00000 0.00000 -0.0157480 0.00000 0.00787402 0.00000 -0.00787402 -0.00787402
5914.46 -0.00787402 -0.00787402 0.00787402 -0.0157480 0.0157480 0.00000 -0.0157480 0.00000
5914.46 0.00787402 -0.0157480 0.00787402 -0.0157480 -0.00787402 -0.0157480 -0.00787402 -0.0157480
5930.61 -0.0157480 0.00000 -0.0157480 0.00000 0.00000 0.00000 0.00000 0.00000
5930.61 0.00000 0.00000 0.00000 -0.00787402 0.00000 -0.00787402 0.00000 -0.00787402
5951.86 0.00000 -0.00787402 -0.0157480 0.00000 -0.0314961 -0.0236220 0.00000 0.00000
5951.86 -0.00787402 -0.00787402 -0.0157480 0.00000 -0.0393701 -0.00787402 -0.00787402 -0.00787402
5981.98 -0.00787402 -0.00787402 0.00000 0.00787402 0.0314961 -0.00787402 -0.0157480 -0.00787402
5981.98 0.00000 -0.00787402 0.00000 0.00000 -0.00787402 0.00000 0.00000 -0.0157480
5997.02 0.00000 -0.00787402 -0.0236220 -0.0157480 0.00787402 0.00000 0.00000 -0.0157480
5997.02 -0.00787402 -0.0157480 0.00000 0.00000 -0.0314961 -0.00787402 0.00787402 0.00000
6012.34 -0.00787402 -0.0157480 -0.00787402 -0.0157480 -0.0314961 -0.00787402 -0.00787402 -0.0157480
6012.34 -0.0157480 -0.0236220 -0.0157480 0.00000 0.0393701 -0.00787402 -0.0157480 -0.0157480
6034.43 -0.0157480 -0.0157480 0.00000 -0.00787402 0.00787402 0.00787402 -0.00787402 0.00000
6034.43 -0.00787402 0.00000 -0.0157480 0.00000 -0.0236220 0.00000 -0.00787402 0.00000
6049.48 -0.0157480 0.00000 -0.00787402 -0.0236220 -0.0236220 -0.00787402 0.00000 -0.00787402
6049.48 0.00000 0.00000 -0.00787402 -0.0236220 0.00000 -0.00787402 -0.0157480 -0.0236220
6056.79 -0.00787402 -0.0157480 -0.0157480 0.00000 0.00000 -0.00787402 -0.00787402 -0.0157480
6056.79 0.00000 -0.00787402 -0.0236220 0.00000 -0.0157480 -0.00787402 0.00000 0.00000
6079.41 -0.00787402 0.00000 0.00000 -0.0236220 -0.00787402 -0.00787402 0.00000 -0.00787402
6079.41 0.00000 0.00000 0.00000 -0.0157480 0.0551181 0.00000 0.00787402 -0.0157480
6094.13 0.00000 0.00787402 0.00787402 0.0157480 0.00000 0.00000 0.00000 -0.00787402
6094.13 0.00000 0.0157480 0.00787402 0.00000 -0.00787402 -0.0157480 0.00000 0.00000
6101.83 0.00000 -0.00787402 0.00000 0.00000 -0.00787402 -0.00787402 0.00000 -0.00787402
6101.83 0.00787402 0.00000 -0.00787402 0.00000 -0.0393701 0.00000 -0.00787402 0.00787402
6124.41 -0.00787402 -0.00787402 -0.0157480 -0.0157480 -0.00787402 -0.00787402 -0.0157480 -0.0157480
6124.41 -0.00787402 -0.0236220 0.00000 -0.00787402 0.0157480 -0.00787402 -0.00787402 -0.00787402
6132.07 -0.00787402 -0.0157480 -0.0157480 0.00000 -0.0157480 -0.00787402 -0.00787402 -0.0236220
6132.07 -0.0236220 -0.00787402 -0.0236220 -0.0157480 0.0157480 -0.00787402 -0.00787402 -0.0157480
6139.42 -0.00787402 0.00000 -0.00787402 0.00000 -0.0314961 -0.00787402 0.00000 0.00000
6139.42 -0.00787402 0.00000 -0.00787402 -0.0236220 -0.0551181 -0.0236220 0.00000 -0.00787402
6154.02 -0.0157480 -0.0157480 0.00787402 -0.00787402 -0.0236220 -0.00787402 -0.00787402 0.00000
6154.02 -0.00787402 -0.0236220 -0.00787402 -0.00787402 -0.0472441 -0.0236220 -0.0157480 -0.0157480
6169.36 0.00000 -0.0157480 -0.0157480 -0.0157480 0.00000 0.00000 0.00787402 -0.00787402
6169.36 0.00787402 0.00787402 -0.00787402 0.00000 0.0236220 -0.0157480 -0.00787402 -0.0157480
6193.29 -0.00787402 0.00000 -0.00787402 -0.0157480 -0.00787402 -0.00787402 -0.00787402 0.00000
6193.29 0.00000 -0.0157480 -0.00787402 0.00000 -0.0236220 -0.0157480 0.00000 -0.0157480
6207.44 -0.0236220 -0.0157480 0.00000 -0.00787402 -0.00787402 -0.0157480 -0.0157480 -0.00787402
6207.44 -0.0157480 -0.0236220 -0.00787402 -0.0157480 0.00787402 0.00787402 -0.00787402 0.00000
6229.44 0.00000 -0.00787402 -0.0236220 -0.0236220 -0.0157480 -0.0157480 -0.00787402 0.00000
6229.44 -0.0157480 0.00787402 -0.0157480 -0.0157480 -0.0314961 -0.00787402 -0.00787402 0.00000
6244.85 0.00000 -0.00787402 -0.00787402 0.00787402 -0.0157480 -0.00787402 0.00000 -0.0157480
6244.85 -0.00787402 0.00787402 -0.00787402 0.00000 -0.0236220 -0.0157480 -0.00787402 -0.00787402
6274.75 0.00000 -0.00787402 -0.00787402 -0.00787402 0.0157480 0.00000 0.00000 0.00787402
6274.75 -0.0157480 0.00787402 -0.00787402 0.00787402 0.00787402 -0.0157480 0.00000 -0.00787402
6281.85 -0.00787402 0.00000 0.00000 0.00000 -0.0393701 0.00000 -0.00787402 0.00000
6281.85 -0.00787402 -0.00787402 -0.0157480 0.00000 -0.00787402 -0.00787402 -0.00787402 -0.00787402
6289.62 -0.00787402 -0.0236220 -0.00787402 0.00000 0.0157480 -0.00787402 -0.00787402 -0.0157480
6289.62 -0.0157480 -0.0236220 -0.00787402 -0.00787402 0.00787402 0.00787402 -0.00787402 -0.00787402
6304.01 -0.0157480 -0.0157480 -0.0157480 0.00000 0.00000 -0.00787402 -0.00787402 -0.00787402
6304.01 0.00000 0.00787402 0.00000 0.00000 0.00787402 -0.00787402 0.00000 0.00000
6311.92 0.00000 0.0157480 0.00787402 -0.0157480 -0.00787402 -0.00787402 0.00000 -0.0157480
6311.92 -0.00787402 -0.0157480 -0.0236220 -0.00787402 -0.0236220 -0.0157480 0.00787402 0.00000
6319.99 0.00000 0.00000 -0.0157480 -0.00787402 -0.0157480 0.00000 -0.0157480 0.00000
6319.99 -0.00787402 -0.00787402 0.00787402 -0.0157480 -0.0236220 0.00000 -0.00787402 -0.00787402
6334.38 -0.00787402 0.00787402 -0.00787402 -0.00787402 -0.00787402 -0.0157480 -0.0157480 -0.00787402
6334.38 0.00000 -0.0157480 -0.00787402 0.00000 -0.0472441 -0.00787402 0.00000 -0.00787402
6349.30 -0.00787402 -0.00787402 -0.00787402 0.00000 -0.0629921 -0.00787402 -0.0157480 -0.00787402
6349.30 -0.00787402 -0.00787402 -0.0236220 0.00000 0.00000 -0.0157480 -0.00787402 -0.0157480
6364.38 0.00000 -0.0157480 -0.0157480 -0.00787402 0.0236220 -0.00787402 -0.00787402 0.00000
6364.38 -0.00787402 -0.00787402 -0.0236220 -0.0157480 0.0157480 -0.00787402 0.00000 -0.00787402
6395.00 0.00000 0.00787402 -0.0157480 -0.0157480 -0.0314961 0.00000 0.00787402 -0.0157480
6395.00 0.00000 0.00000 -0.00787402 -0.00787402 0.0393701 0.00787402 0.00787402 -0.00787402
6409.54 -0.00787402 -0.0157480 -0.0236220 0.00000 0.0393701 0.00787402 0.00000 0.00000
6409.54 -0.00787402 -0.00787402 -0.0157480 0.00000 -0.0236220 -0.00787402 0.00000 0.00787402
6431.77 -0.00787402 -0.0236220 -0.0157480 0.00787402 0.0236220 -0.00787402 -0.0157480 0.00787402
6431.77 0.00000 -0.00787402 0.00000 -0.00787402 -0.0551181 -0.00787402 -0.0314961 0.00000
6454.41 0.00000 0.00000 -0.00787402 0.00000 -0.0157480 -0.0157480 0.00000 -0.00787402
6454.41 -0.00787402 -0.00787402 -0.00787402 -0.00787402 -0.0236220 -0.00787402 0.00787402 -0.00787402
6484.28 -0.00787402 -0.00787402 0.00000 0.00000 -0.0157480 -0.00787402 -0.00787402 -0.0157480
6484.28 0.00000 0.00000 -0.00787402 -0.0157480 -0.0157480 0.00000 -0.0157480 0.00000
6499.38 -0.00787402 -0.00787402 0.00000 0.00000 -0.0157480 -0.00787402 0.00000 -0.00787402
6499.38 -0.0157480 0.00787402 0.00000 -0.00787402 0.0393701 -0.00787402 -0.00787402 -0.00787402
6506.88 0.00000 0.0236220 -0.00787402 0.00000 0.0236220 0.00000 -0.00787402 0.00000
6506.88 0.00787402 -0.00787402 -0.0157480 -0.0157480 0.00000 -0.00787402 0.00000 -0.0157480
6521.86 -0.00787402 -0.0157480 -0.00787402 -0.00787402 -0.0393701 -0.00787402 -0.00787402 -0.00787402
6521.86 -0.0236220 -0.00787402 0.00787402 -0.0157480 0.0314961 -0.0157480 -0.00787402 -0.00787402
6541.88 0.00000 0.00000 -0.00787402 -0.0157480 -0.00787402 0.00000 -0.0157480 -0.00787402
6541.88 0.00000 -0.0157480 -0.00787402 -0.0157480 0.0157480 -0.00787402 -0.0157480 -0.00787402
6559.64 0.00000 -0.00787402 -0.0236220 0.00000 -0.0629921 0.00000 0.00787402 -0.0236220
6559.64 -0.0157480 -0.00787402 0.00000 0.00000 0.0314961 -0.0236220 -0.0157480 -0.0236220
6566.90 -0.00787402 -0.0157480 -0.0157480 0.00000 0.0157480 -0.00787402 0.00787402 -0.00787402
6566.90 0.00000 0.0157480 0.0157480 0.00000 0.0314961 -0.0157480 0.00000 -0.00787402
6589.42 -0.00787402 -0.0236220 -0.0157480 -0.0157480 -0.0314961 0.00787402 -0.00787402 -0.00787402
6589.42 -0.00787402 -0.0314961 -0.00787402 -0.00787402 -0.0157480 -0.0157480 -0.0157480 -0.00787402
6611.95 0.00000 -0.00787402 -0.00787402 0.0157480 -0.00787402 0.00000 -0.0157480 -0.00787402
6611.95 -0.00787402 0.00000 -0.0157480 -0.00787402 -0.0629921 -0.00787402 0.00787402 -0.00787402
6627.04 -0.0157480 0.00000 -0.0157480 -0.00787402 -0.0551181 -0.00787402 -0.00787402 -0.00787402
6627.04 -0.0157480 -0.0157480 -0.00787402 -0.0157480 -0.0472441 0.00787402 -0.00787402 -0.00787402
6648.09 -0.00787402 -0.00787402 -0.0157480 -0.0157480 -0.00787402 0.00000 -0.0157480 0.00000
6648.09 0.00000 -0.00787402 0.00000 -0.00787402 -0.0236220 0.00000 -0.00787402 -0.00787402
6671.78 -0.00787402 0.00000 -0.0157480 0.00000 0.0157480 -0.00787402 -0.00787402 -0.0157480
6671.78 -0.0157480 -0.0157480 -0.0157480 -0.00787402 0.00000 -0.00787402 0.00000 -0.0157480
6686.89 -0.00787402 0.00000 -0.00787402 0.00000 0.00000 -0.0157480 -0.00787402 0.00000
6686.89 -0.00787402 -0.0157480 0.00000 -0.00787402 -0.00787402 -0.00787402 0.00000 -0.00787402
6707.95 -0.00787402 -0.0157480 0.00000 0.00000 -0.0314961 0.00000 -0.0236220 -0.00787402
6707.95 0.00787402 -0.0157480 -0.00787402 -0.00787402 -0.00787402 0.00787402 0.00000 -0.00787402
6716.82 0.00000 0.00000 -0.00787402 -0.0157480 0.00000 -0.0236220 -0.0157480 0.00787402
6716.82 0.00000 -0.0157480 -0.00787402 0.00000 -0.0472441 -0.0157480 0.00787402 -0.00787402
6745.06 -0.0157480 0.00000 -0.00787402 -0.0157480 0.0157480 0.00000 0.00000 -0.00787402
6745.06 0.00000 0.00000 0.00000 -0.0236220 -0.0157480 0.00000 0.00000 -0.00787402
6754.37 0.00000 -0.00787402 -0.00787402 -0.00787402 -0.0393701 -0.0157480 -0.00787402 -0.00787402
6754.37 -0.0157480 0.00000 -0.00787402 -0.0157480 0.00000 -0.0157480 -0.0157480 0.00000
6769.33 0.00787402 -0.00787402 0.00000 -0.00787402 -0.0393701 0.00000 -0.00787402 0.00787402
6769.33 0.00000 0.00787402 0.00000 -0.0236220 0.0157480 0.00787402 0.00000 -0.00787402
6784.32 -0.00787402 0.00000 0.00787402 -0.00787402 0.0393701 0.00787402 0.00787402 -0.00787402
6784.32 -0.0157480 -0.0157480 -0.00787402 -0.00787402 0.0236220 0.00787402 -0.00787402 0.00000
6791.59 -0.0157480 0.00000 -0.0157480 0.00000 0.0314961 0.00000 -0.00787402 -0.0157480
6791.59 0.00000 0.00787402 -0.0157480 0.00787402 0.0157480 -0.0157480 0.00787402 -0.00787402
6814.48 0.00000 -0.00787402 0.00000 -0.0157480 -0.0236220 0.00787402 -0.00787402 -0.00787402
6814.48 0.00000 -0.00787402 0.00000 -0.00787402 0.0157480 0.00000 -0.0157480 0.00000
6819.33 0.00787402 -0.00787402 0.00000 -0.00787402 -0.0157480 -0.0157480 0.00000 -0.00787402
6821.86 0.00000 0.00000 0.00787402 -0.00787402 -0.0157480 -0.0236220 -0.00787402 -0.00787402
6841.91 0.00000 -0.0157480 0.00000 -0.00787402 0.0157480 0.00787402 0.00000 0.00000
6841.91 0.00000 0.00787402 -0.00787402 0.00000 0.00000 0.00000 -0.00787402 -0.00787402
6851.82 -0.00787402 -0.00787402 0.00000 -0.0157480 0.0157480 -0.0157480 -0.00787402 -0.00787402
6851.82 0.00787402 0.00000 -0.0157480 -0.0157480 -0.00787402 -0.00787402 -0.00787402 -0.00787402
6875.04 -0.00787402 0.00787402 -0.00787402 0.00000 -0.0629921 -0.0157480 -0.00787402 0.00000
6875.04 -0.0157480 0.00000 -0.0236220 0.00000 0.00787402 -0.00787402 -0.00787402 -0.00787402
6889.36 -0.00787402 -0.00787402 -0.0314961 -0.00787402 -0.0314961 0.00000 -0.00787402 -0.0157480
6889.36 -0.00787402 -0.0236220 -0.0236220 0.00000 -0.0551181 0.00000 0.00787402 0.00000
6895.93 -0.00787402 -0.00787402 0.00000 -0.00787402 0.00787402 0.00000 -0.00787402 0.00787402
6895.93 0.00000 0.00787402 0.00787402 -0.0157480 0.0393701 0.00000 -0.00787402 0.00000
6919.37 -0.00787402 -0.0157480 0.00000 0.00787402 0.00787402 -0.00787402 -0.0157480 -0.00787402
6919.37 0.00787402 -0.0157480 -0.00787402 -0.0236220 -0.0314961 -0.00787402 -0.0157480 -0.0157480
6956.81 -0.00787402 -0.00787402 0.00787402 0.00000 -0.00787402 -0.00787402 0.00000 -0.00787402
6956.81 -0.00787402 -0.0157480 0.00000 0.00787402 0.00787402 -0.0157480 0.00000 -0.00787402
6962.42 0.00000 0.00000 -0.0236220 -0.00787402 0.00000 -0.0314961 0.00000 0.00787402
6962.42 -0.0157480 0.00000 -0.0236220 -0.00787402 0.00787402 0.00000 -0.00787402 -0.00787402
6979.43 0.00787402 0.00000 -0.0157480 -0.0157480 0.0472441 -0.00787402 -0.00787402 -0.0157480
6979.43 -0.00787402 -0.0157480 0.0157480 -0.00787402 0.0157480 -0.0157480 -0.0157480 -0.0157480
6986.86 -0.0157480 -0.00787402 0.00787402 0.00000 0.00787402 -0.00787402 -0.0157480 -0.0157480
6986.86 -0.0236220 -0.00787402 -0.0157480 0.00000 0.00787402 -0.00787402 -0.0157480 -0.0157480
6992.48 0.00000 0.00000 0.00787402 -0.0157480 0.0393701 -0.0157480 0.00000 -0.0157480
6994.83 -0.00787402 -0.0157480 -0.0157480 -0.0157480 0.0157480 0.00000 -0.00787402 0.00000
7001.94 0.00787402 0.0157480 0.00000 -0.00787402 -0.0314961 -0.00787402 -0.00787402 -0.00787402
7001.94 -0.00787402 0.00000 -0.00787402 0.00787402 0.0236220 -0.00787402 0.00787402 0.00787402
7016.85 -0.0236220 -0.0236220 0.00000 -0.0236220 -0.0393701 -0.0157480 -0.00787402 0.00000
7016.85 -0.0236220 -0.00787402 -0.00787402 -0.0157480 -0.0629921 0.00000 -0.0157480 -0.0157480
7031.91 -0.00787402 0.00000 0.00787402 -0.0157480 0.00787402 -0.0236220 -0.00787402 -0.0157480
7031.91 0.00000 -0.0157480 -0.0236220 0.0157480 0.0236220 -0.00787402 0.00000 -0.0157480
7046.92 0.00000 0.0157480 -0.00787402 -0.0236220 0.0787402 -0.0157480 0.00000 -0.00787402
7046.92 0.00787402 0.00787402 0.00000 -0.0157480 0.0157480 -0.0236220 0.00000 -0.00787402
7092.51 -0.00787402 -0.00787402 0.00787402 0.00787402 -0.00787402 -0.00787402 -0.00787402 -0.00787402
7092.51 -0.00787402 0.0236220 -0.00787402 0.00000 -0.0236220 -0.00787402 -0.0157480 0.00000
7121.90 -0.00787402 -0.00787402 0.00787402 -0.00787402 -0.0157480 -0.00787402 -0.0157480 -0.00787402
7121.90 -0.00787402 0.00000 0.00000 -0.0236220 -0.00787402 -0.0236220 -0.00787402 0.00000
7144.92 -0.0236220 -0.00787402 -0.0236220 0.00000 -0.00787402 0.00787402 -0.00787402 -0.00787402
7144.92 -0.00787402 -0.0236220 0.00000 -0.00787402 -0.00787402 -0.00787402 0.00000 -0.0236220
7174.45 0.00000 0.00787402 0.00000 -0.00787402 0.0314961 -0.00787402 -0.00787402 -0.00787402
7174.45 0.00000 0.00787402 0.00000 -0.0157480 -0.0472441 -0.0157480 -0.00787402 -0.00787402
7181.93 -0.0157480 -0.0157480 0.00000 0.0157480 -0.0157480 0.00000 -0.00787402 -0.0157480
7181.93 -0.00787402 -0.00787402 0.00000 -0.0157480 0.00000 -0.0236220 0.00787402 -0.00787402
7196.95 0.0157480 -0.00787402 0.00787402 -0.00787402 -0.0314961 0.00000 -0.00787402 -0.00787402
7196.95 -0.00787402 -0.0314961 0.00787402 -0.0157480 0.0393701 -0.00787402 0.00000 0.0157480
7203.98 -0.0157480 -0.0157480 0.00000 -0.0157480 -0.00787402 0.00000 0.00000 0.00000
7203.98 -0.0157480 -0.00787402 -0.00787402 -0.00787402 0.0157480 0.00000 -0.00787402 -0.00787402
7212.44 -0.00787402 0.00787402 -0.0157480 0.00000 -0.0472441 0.00000 0.00000 0.00000
7212.44 0.00000 -0.00787402 -0.00787402 0.0157480 0.00787402 -0.00787402 0.00787402 -0.00787402
7219.33 0.00000 -0.0236220 -0.0236220 0.00000 -0.0236220 -0.00787402 -0.0157480 -0.00787402
7219.33 0.00000 -0.00787402 -0.0236220 0.00000 -0.0157480 -0.00787402 0.00000 -0.0157480
7224.88 0.00787402 -0.0314961 0.00787402 -0.00787402 -0.0157480 -0.0157480 0.00787402 0.00000
7224.88 -0.00787402 -0.0236220 -0.00787402 -0.0157480 0.0393701 -0.0157480 -0.00787402 0.00000
7242.22 -0.00787402 0.00000 -0.0157480 -0.00787402 0.0236220 -0.0157480 0.00787402 0.00000
7242.22 -0.0157480 0.00787402 0.00000 -0.00787402 -0.00787402 -0.00787402 -0.00787402 -0.00787402
7256.90 0.00000 -0.0236220 0.00000 0.00000 -0.00787402 0.00000 -0.00787402 -0.0157480
7256.90 -0.00787402 0.00000 0.00787402 -0.00787402 -0.0157480 -0.0157480 -0.0236220 -0.0236220
7271.82 0.00787402 0.00000 0.00000 -0.00787402 0.00787402 -0.0157480 -0.0157480 -0.00787402
7271.82 0.0157480 0.0157480 -0.0236220 0.00000 -0.0314961 -0.00787402 -0.00787402 0.00000
7279.26 -0.0157480 0.00000 -0.0236220 -0.00787402 0.0236220 -0.00787402 0.00000 -0.00787402
7279.26 -0.0157480 -0.00787402 0.00000 -0.00787402 0.0472441 -0.00787402 -0.00787402 0.00000
7294.40 0.00000 0.00000 -0.00787402 -0.0236220 -0.0157480 -0.00787402 -0.0157480 0.00000
7294.40 -0.0157480 0.0157480 -0.00787402 0.00000 -0.00787402 0.00000 0.00000 0.00000
7309.86 0.00000 -0.00787402 0.00000 -0.0157480 0.00000 0.00000 -0.00787402 -0.00787402
7309.86 -0.0157480 -0.00787402 -0.0157480 -0.0157480 0.0236220 -0.00787402 -0.00787402 -0.0157480
7316.74 0.00000 0.00000 0.0157480 -0.00787402 0.0314961 -0.00787402 0.00000 -0.00787402
7316.74 -0.0157480 -0.00787402 -0.00787402 -0.00787402 -0.00787402 0.00000 -0.00787402 0.00000
7391.92 -0.00787402 -0.00787402 -0.0393701 0.00787402 -0.00787402 -0.00787402 0.00000 -0.0157480
7391.92 -0.0157480 -0.0314961 -0.00787402 0.00000 0.0314961 -0.0157480 0.00000 -0.0236220
7399.42 0.00000 -0.0236220 -0.00787402 -0.0157480 -0.0236220 -0.00787402 -0.0157480 -0.0157480
7399.42 0.0157480 0.00787402 -0.0157480 -0.00787402 -0.0314961 -0.00787402 -0.00787402 -0.0157480
7429.46 -0.0157480 -0.0236220 -0.0157480 0.00000 -0.0236220 -0.00787402 -0.0236220 0.00000
7429.46 0.00000 -0.0157480 -0.0157480 -0.00787402 0.00000 -0.00787402 -0.0157480 0.00000
7451.75 -0.00787402 0.00000 0.00000 0.00000 0.0157480 0.0157480 0.00000 -0.0157480
7451.75 0.00000 -0.0236220 0.00787402 0.00000 -0.00787402 0.00787402 -0.00787402 -0.00787402
7459.49 -0.00787402 -0.0157480 -0.00787402 -0.00787402 0.0236220 0.00000 0.00787402 -0.00787402
7459.49 0.00000 -0.0157480 0.00787402 -0.00787402 0.00000 -0.00787402 -0.00787402 -0.00787402
7474.37 -0.00787402 0.0157480 -0.00787402 -0.0157480 -0.0551181 0.00000 0.00000 0.00000
7474.37 -0.0157480 -0.0236220 -0.00787402 -0.0236220 -0.00787402 -0.00787402 0.00000 -0.00787402
7481.80 0.00000 -0.0236220 -0.00787402 -0.00787402 0.00000 -0.0157480 -0.0157480 -0.00787402
7481.80 0.00000 -0.00787402 -0.0157480 -0.00787402 0.0472441 0.00000 0.00000 -0.00787402
7488.06 -0.00787402 0.00000 -0.00787402 -0.00787402 -0.0236220 0.00000 -0.00787402 0.00000
7488.06 -0.00787402 0.00000 -0.0157480 -0.00787402 0.00787402 -0.00787402 -0.0157480 -0.00787402
7511.25 -0.00787402 0.00787402 -0.0236220 0.00000 -0.0472441 -0.0157480 -0.0236220 0.00000
7511.25 0.00000 -0.00787402 -0.0157480 -0.00787402 0.00787402 -0.0157480 -0.00787402 0.00000
7526.18 -0.00787402 -0.0157480 0.00000 -0.00787402 -0.0157480 0.00787402 0.00000 0.00000
7526.18 0.00000 -0.0236220 0.00000 0.00000 -0.00787402 0.00000 -0.00787402 -0.00787402
7533.87 -0.0157480 -0.0157480 0.00787402 0.0157480 0.00787402 0.00787402 0.0157480 0.00787402
7533.87 -0.00787402 -0.00787402 -0.00787402 0.00787402 -0.0393701 -0.0157480 0.00000 -0.0157480
7542.00 -0.00787402 0.00787402 -0.0157480 -0.00787402 0.00000 -0.0157480 0.00787402 -0.0157480
7542.00 0.00000 0.00000 -0.0236220 0.00000 -0.0157480 -0.0157480 -0.00787402 0.00000
7556.79 -0.0157480 0.00787402 0.00000 0.00000 0.0236220 0.00000 0.00000 0.00000
7556.79 -0.00787402 0.00000 -0.00787402 -0.0157480 0.0157480 -0.00787402 0.00000 0.00000
7578.66 -0.00787402 0.00787402 0.00000 -0.00787402 -0.0551181 0.00000 -0.0157480 -0.00787402
7578.66 0.00000 0.00787402 -0.00787402 0.00000 0.0157480 0.00000 -0.00787402 -0.00787402
7586.28 -0.0157480 0.00000 -0.0236220 -0.00787402 0.00000 -0.00787402 0.00000 -0.00787402
7586.28 0.00787402 -0.00787402 -0.0157480 0.00000 0.00000 -0.0157480 -0.00787402 0.00000
7609.40 -0.00787402 -0.00787402 -0.0157480 -0.0236220 0.00000 -0.0157480 0.00000 -0.0157480
7609.40 -0.00787402 -0.00787402 -0.0157480 -0.0157480 0.00000 -0.00787402 0.00000 -0.00787402
7624.54 0.00000 0.00000 -0.0157480 -0.0157480 -0.0157480 -0.00787402 -0.0157480 -0.00787402
7624.54 -0.0157480 -0.0314961 -0.00787402 -0.00787402 0.0314961 -0.00787402 -0.00787402 -0.00787402
7654.22 0.0157480 -0.0157480 -0.00787402 -0.00787402 -0.00787402 -0.0157480 -0.0157480 -0.00787402
7654.22 0.00787402 -0.00787402 -0.00787402 0.00000 -0.0551181 -0.00787402 -0.00787402 -0.00787402
7669.80 0.00000 0.00000 -0.00787402 0.00000 -0.0393701 -0.00787402 -0.00787402 -0.00787402
7669.80 -0.00787402 0.00000 0.00000 0.00000 0.0236220 0.00000 0.00000 -0.00787402
7676.69 -0.00787402 -0.00787402 -0.0157480 0.00000 0.00787402 0.00787402 -0.00787402 -0.00787402
7676.69 -0.0157480 0.00000 -0.00787402 -0.0157480 -0.00787402 -0.0157480 0.00000 0.00000
7701.47 -0.0157480 0.00000 -0.0157480 0.00000 -0.0314961 -0.00787402 -0.00787402 0.00787402
7701.47 0.00000 -0.00787402 0.00787402 -0.0236220 -0.00787402 0.00000 -0.00787402 -0.00787402
7706.49 0.00000 -0.0157480 0.00000 -0.00787402 -0.00787402 -0.00787402 0.00000 -0.0236220
7706.49 -0.0157480 -0.00787402 0.00000 -0.00787402 -0.0157480 0.00000 -0.00787402 -0.0157480
7714.00 0.00000 -0.00787402 -0.00787402 -0.0157480 0.0472441 0.00000 -0.0236220 -0.00787402
7714.00 -0.00787402 -0.00787402 -0.0157480 -0.0236220 -0.00787402 -0.00787402 0.00000 -0.00787402
7722.10 -0.00787402 0.0157480 -0.00787402 0.00000 -0.0393701 -0.0236220 -0.00787402 -0.00787402
7722.10 -0.0157480 -0.00787402 -0.00787402 0.00787402 0.00787402 0.00000 -0.0157480 -0.0157480
7737.63 -0.0157480 -0.0157480 0.00000 0.00000 -0.0866142 0.00000 -0.00787402 0.00000
7737.63 -0.0157480 -0.00787402 -0.00787402 0.00787402 0.00000 -0.00787402 0.00000 -0.00787402
7752.75 -0.00787402 0.00000 0.00000 -0.0157480 -0.00787402 -0.0157480 -0.00787402 0.00000
7752.75 0.00787402 0.00787402 -0.00787402 0.00000 -0.0629921 0.00787402 -0.00787402 0.0157480
7759.46 0.00000 -0.0157480 0.00000 -0.00787402 0.0236220 -0.00787402 0.00787402 -0.00787402
7759.46 -0.00787402 0.00000 -0.0157480 -0.00787402 -0.0157480 -0.0157480 0.00000 -0.00787402
7766.30 -0.00787402 -0.0157480 -0.00787402 -0.00787402 -0.0236220 -0.00787402 0.00000 0.00000
7766.30 -0.00787402 -0.0314961 0.00787402 -0.00787402 -0.0157480 0.00000 0.00000 -0.00787402
7783.92 0.00000 -0.00787402 -0.00787402 -0.00787402 0.0157480 -0.0157480 -0.00787402 -0.00787402
7783.92 0.00000 0.00000 -0.00787402 0.0157480 -0.0314961 0.00000 -0.00787402 0.00000
7788.83 -0.0157480 0.00787402 -0.0236220 -0.0236220 0.00000 -0.00787402 -0.00787402 -0.00787402
7788.83 -0.00787402 -0.00787402 -0.0236220 -0.00787402 0.0157480 -0.00787402 0.00787402 -0.00787402
7796.50 -0.00787402 -0.00787402 -0.00787402 0.0157480 0.00787402 -0.00787402 -0.00787402 -0.00787402
7796.50 -0.0236220 0.00787402 -0.00787402 -0.00787402 -0.0157480 -0.00787402 -0.0157480 -0.00787402
7819.38 -0.0157480 0.00787402 -0.00787402 -0.0157480 0.0314961 -0.0157480 -0.00787402 0.00787402
7819.38 -0.0157480 -0.00787402 0.00000 -0.00787402 -0.0393701 -0.00787402 -0.00787402 0.00000
7826.97 0.00000 -0.00787402 0.00787402 0.00000 -0.0393701 -0.0157480 -0.00787402 0.00000
7826.97 -0.00787402 -0.0157480 0.00000 0.00000 -0.0157480 -0.0236220 -0.00787402 -0.00787402
7842.74 -0.00787402 -0.00787402 -0.00787402 0.00000 -0.0314961 -0.0236220 -0.00787402 0.00000
7842.74 -0.00787402 -0.0236220 0.00000 -0.00787402 0.0472441 -0.00787402 -0.00787402 -0.00787402
7847.33 0.00787402 -0.0157480 -0.00787402 -0.0236220 0.00000 -0.0157480 0.00000 0.00000
7849.35 0.00000 -0.00787402 -0.00787402 -0.0157480 -0.0314961 -0.00787402 -0.00787402 -0.0236220
7856.88 -0.00787402 -0.0157480 -0.0157480 -0.00787402 -0.0236220 0.00000 -0.0157480 -0.0157480
7856.88 0.00000 0.00787402 0.00000 0.00000 0.00000 0.00787402 -0.0236220 0.00000
7870.56 0.00787402 -0.0157480 0.00787402 -0.00787402 0.0236220 0.00000 0.00000 -0.00787402
7870.56 -0.0157480 0.0157480 0.00000 -0.0157480 -0.00787402 0.00000 0.00000 0.00000
7888.40 0.00787402 0.00787402 0.00000 -0.00787402 -0.0157480 -0.00787402 0.00000 -0.0157480
7888.40 -0.0236220 -0.00787402 -0.0157480 -0.00787402 0.0157480 -0.0157480 -0.0157480 0.00000
7899.34 -0.0236220 -0.00787402 -0.0236220 -0.00787402 -0.0393701 -0.00787402 -0.00787402 -0.00787402
7901.36 -0.00787402 -0.0157480 -0.0157480 -0.0157480 -0.0314961 -0.00787402 0.00000 0.00000
7924.97 -0.00787402 -0.0157480 -0.0157480 -0.00787402 0.0157480 -0.00787402 -0.00787402 0.00000
7924.97 0.00000 -0.0157480 -0.0236220 -0.00787402 0.0472441 0.00000 -0.0157480 -0.0157480
7946.91 -0.00787402 -0.0157480 -0.0157480 -0.00787402 0.0314961 -0.00787402 -0.0157480 -0.00787402
7946.91 0.00000 -0.00787402 -0.00787402 -0.00787402 -0.0157480 -0.0157480 0.00787402 -0.00787402
7956.87 -0.00787402 -0.0236220 -0.0157480 -0.00787402 0.0236220 0.00000 -0.00787402 -0.00787402
7956.87 -0.00787402 -0.00787402 0.0157480 -0.00787402 -0.0236220 -0.0157480 -0.00787402 0.00000
7969.33 -0.00787402 0.00787402 0.0157480 -0.00787402 0.0393701 0.00000 -0.00787402 -0.00787402
7969.33 0.00000 0.0157480 0.00000 0.00000 0.00787402 0.00787402 -0.0236220 -0.0157480
7985.43 -0.0157480 -0.00787402 -0.00787402 -0.00787402 -0.0157480 -0.0157480 -0.0157480 -0.0236220
7985.43 -0.00787402 -0.00787402 -0.0157480 0.00000 -0.00787402 -0.00787402 0.00000 -0.0157480
7992.03 0.00000 0.00000 -0.00787402 -0.00787402 0.0157480 -0.00787402 -0.0157480 -0.0157480
7992.03 -0.00787402 -0.00787402 -0.00787402 -0.00787402 0.00787402 -0.00787402 -0.00787402 -0.00787402
8014.16 0.00000 -0.0157480 0.00000 -0.00787402 -0.0551181 0.00000 0.00000 0.00000
8014.16 -0.00787402 0.00000 -0.00787402 -0.00787402 -0.0314961 -0.0157480 -0.0157480 -0.00787402
8036.81 0.00000 -0.00787402 0.00787402 -0.00787402 -0.00787402 0.00000 0.00000 -0.0157480
8036.81 -0.00787402 -0.0157480 0.00787402 -0.00787402 -0.0236220 -0.00787402 0.00000 0.00000
8051.82 0.00000 0.00000 -0.0157480 -0.0236220 0.0157480 0.00000 -0.00787402 -0.0236220
8051.82 0.00000 -0.0157480 -0.0157480 0.00000 0.0157480 -0.00787402 0.00000 -0.00787402
8068.37 -0.0236220 0.00000 -0.0157480 -0.0157480 -0.0314961 -0.0157480 0.00000 -0.00787402
8068.37 -0.00787402 0.00000 0.00000 -0.00787402 0.0236220 0.00787402 -0.00787402 -0.0236220
8079.60 -0.0157480 -0.00787402 -0.0157480 0.00787402 -0.0393701 0.00000 -0.0236220 0.00000
8079.60 -0.00787402 0.00787402 -0.0157480 -0.00787402 -0.0629921 0.00000 -0.00787402 -0.00787402
8103.50 0.00787402 0.00787402 -0.00787402 -0.00787402 0.00000 0.00000 -0.00787402 0.00000
8103.50 -0.0157480 -0.0157480 -0.00787402 -0.00787402 0.00000 0.00000 0.00000 0.00787402
8112.01 0.00000 0.00000 -0.0157480 -0.0157480 0.0236220 0.00787402 0.00000 0.00000
8112.01 0.00787402 -0.0236220 -0.00787402 0.00000 -0.00787402 0.00000 -0.0157480 0.00000
8134.44 0.00000 -0.0236220 -0.00787402 -0.00787402 -0.0314961 0.00000 0.00787402 -0.00787402
8134.44 0.00787402 -0.0157480 0.00000 -0.00787402 0.00000 -0.0157480 -0.0157480 0.00787402
8142.36 -0.00787402 -0.00787402 0.00787402 0.00787402 -0.00787402 -0.0157480 0.00000 -0.0157480
8142.36 0.00000 -0.0236220 0.0236220 -0.00787402 0.0157480 -0.0157480 0.00000 0.00000
8172.91 -0.0157480 -0.0236220 -0.00787402 -0.00787402 0.0551181 -0.00787402 -0.00787402 0.00000
8172.91 -0.00787402 0.00000 0.00000 0.00000 0.0236220 0.00000 0.00000 -0.0236220
8194.83 -0.00787402 -0.00787402 -0.0157480 0.00000 -0.0157480 0.00000 -0.0157480 -0.00787402
8194.83 0.00000 -0.00787402 -0.00787402 -0.00787402 -0.0314961 -0.00787402 -0.0157480 -0.0157480
8207.68 -0.00787402 0.00000 0.00000 -0.0157480 0.0236220 -0.0236220 -0.00787402 0.00000
8207.68 -0.00787402 -0.00787402 -0.00787402 -0.00787402 -0.00787402 0.00000 -0.00787402 0.00787402
8224.64 -0.00787402 -0.00787402 0.00000 -0.0236220 -0.0393701 0.00787402 -0.00787402 0.00000
8224.64 -0.00787402 -0.0157480 -0.0157480 0.00000 -0.00787402 -0.00787402 -0.0157480 -0.00787402
8257.37 0.00000 -0.00787402 -0.00787402 -0.00787402 -0.0393701 -0.00787402 -0.0157480 -0.0236220
8257.37 0.00000 -0.0236220 -0.0157480 -0.00787402 -0.0551181 0.00000 0.00787402 0.00000
8277.61 -0.00787402 0.00000 0.00787402 0.00000 -0.0314961 -0.00787402 0.00000 0.00787402
8277.61 0.00000 0.00787402 0.00000 -0.00787402 -0.0314961 -0.00787402 -0.00787402 -0.0236220
8314.39 0.00000 -0.00787402 0.00787402 -0.0157480 0.0472441 0.00000 0.00000 -0.00787402
8314.39 -0.0157480 -0.0157480 -0.0157480 -0.00787402 0.0393701 -0.0157480 -0.00787402 -0.0157480
37263.6 0.00000 -0.00787402 -0.0157480 -0.0472441 -0.0393701 -0.0157480 -0.00787402 0.00000
37263.6 -0.00787402 0.0708661 -0.0551181 -0.0157480 -0.0236220 0.00000 0.00000 -0.00787402
37281.0 -0.0157480 -0.0236220 0.0472441 0.00787402 -0.0314961 0.0157480 0.00787402 -0.00787402
37281.0 0.00000 -0.00787402 -0.0157480 -0.0157480 -0.0393701 -0.0157480 -0.00787402 -0.0157480
37286.1 0.00000 -0.00787402 -0.00787402 0.00787402 0.00787402 -0.00787402 0.00000 0.00000
37286.1 0.0472441 0.0157480 -0.0314961 -0.0157480 -0.0236220 -0.0236220 -0.0157480 0.00000
37293.5 -0.0866142 -0.0551181 0.00787402 0.0236220 0.0157480 0.00000 0.00000 -0.00787402
37293.5 -0.00787402 -0.00787402 0.00787402 -0.0393701 0.0157480 0.00787402 0.0157480 -0.00787402
37308.1 -0.0157480 0.00000 -0.00787402 0.00787402 -0.0157480 -0.00787402 -0.00787402 -0.00787402
37308.1 -0.00787402 -0.0472441 -0.00787402 -0.00787402 0.00787402 -0.0157480 0.00000 -0.00787402
37310.9 0.00787402 0.102362 -0.0944882 -0.00787402 -0.0787402 0.00000 -0.00787402 -0.00787402
37315.7 0.00787402 -0.181102 0.0629921 0.0866142 -0.0157480 -0.0157480 -0.00787402 0.00787402
37333.7 0.00000 -0.0472441 -0.0157480 -0.0314961 0.0236220 -0.0314961 -0.0157480 -0.00787402
37333.7 -0.00787402 0.00787402 0.0866142 -0.0236220 -0.0314961 -0.0236220 -0.00787402 -0.00787402
37345.7 -0.0236220 -0.0393701 0.00787402 0.133858 0.0629921 0.0157480 -0.00787402 -0.0157480
37345.7 0.00000 -0.0314961 -0.0157480 -0.102362 -0.0866142 -0.0314961 -0.0157480 0.00000
37356.5 -0.0236220 -0.0472441 0.0393701 -0.00787402 -0.0314961 0.0157480 0.0157480 0.00000
37356.5 -0.0157480 0.0472441 -0.0866142 -0.0866142 -0.0629921 -0.0157480 -0.0157480 -0.00787402
37368.6 0.0314961 0.00000 -0.00787402 0.0866142 0.0157480 -0.0157480 -0.00787402 -0.00787402
37368.6 -0.0157480 -0.0393701 -0.0787402 -0.0629921 0.0551181 -0.00787402 -0.0157480 -0.00787402
37391.2 -0.0236220 -0.0314961 0.0236220 -0.0314961 -0.00787402 -0.00787402 0.00000 -0.0157480
37391.2 0.00000 -0.0236220 -0.0393701 0.0314961 -0.0314961 0.00000 -0.0157480 -0.00787402
37398.9 -0.00787402 -0.0472441 -0.00787402 -0.0236220 0.0629921 -0.00787402 -0.00787402 -0.0157480
37398.9 0.00000 0.0472441 -0.00787402 0.0314961 -0.102362 -0.0157480 -0.00787402 -0.00787402
37415.6 0.0157480 0.0708661 -0.0551181 -0.110236 0.133858 0.00787402 0.00000 -0.00787402
37415.6 0.00000 0.00787402 0.00787402 0.0314961 -0.0708661 -0.0157480 0.00000 -0.00787402
37420.6 0.00000 0.00787402 -0.0157480 -0.0472441 -0.00787402 0.00000 0.00000 -0.00787402
37420.6 -0.0393701 0.0236220 -0.118110 0.0236220 0.00000 0.00787402 -0.00787402 -0.0157480
37436.3 0.00787402 0.0393701 0.00000 0.0629921 0.0314961 0.00000 -0.0236220 0.00000
37436.3 -0.0314961 0.0393701 0.00000 -0.0393701 0.0629921 0.0157480 0.00000 -0.0157480
37451.1 -0.0157480 0.0551181 -0.0393701 -0.0708661 -0.0944882 -0.0157480 0.00000 -0.00787402
37451.1 -0.00787402 0.0551181 -0.0314961 -0.00787402 -0.0314961 -0.0236220 -0.00787402 0.00000
37463.5 0.0314961 -0.00787402 0.0314961 0.00000 -0.0314961 0.00787402 0.00000 0.00787402
37463.5 0.00000 -0.00787402 0.0551181 0.0708661 -0.0629921 0.0157480 0.00787402 -0.00787402
37473.3 0.0157480 -0.0157480 -0.00787402 -0.0708661 -0.0551181 -0.0393701 -0.0236220 -0.00787402
37473.3 0.00787402 -0.00787402 0.00000 -0.0236220 0.0314961 -0.0157480 -0.00787402 -0.00787402
37486.7 -0.0236220 0.0314961 -0.0708661 0.125984 -0.0708661 0.00000 0.00000 -0.0157480
37486.7 0.0157480 0.0708661 -0.0472441 -0.259843 0.0236220 -0.0157480 0.00000 0.00000
37495.4 -0.0314961 -0.181102 0.0629921 0.110236 0.0551181 0.0236220 0.00787402 0.00000
37495.4 0.00000 0.0157480 0.0708661 -0.00787402 -0.0472441 -0.0393701 0.00000 0.00787402
37518.5 0.0236220 0.0708661 -0.0472441 -0.0708661 -0.0866142 -0.0314961 -0.0157480 -0.00787402
37518.5 -0.0551181 -0.0314961 -0.0787402 0.0157480 0.0629921 0.0236220 0.00000 -0.0472441
37533.7 0.00787402 -0.0236220 0.0157480 -0.0157480 0.00000 -0.0314961 -0.00787402 -0.00787402
37533.7 -0.0157480 0.0314961 -0.00787402 0.00787402 -0.0157480 -0.0236220 -0.00787402 -0.00787402
37543.3 0.0314961 0.00787402 0.0551181 -0.0236220 0.00000 -0.00787402 -0.00787402 0.00000
37543.3 -0.0393701 -0.220472 -0.0157480 0.0393701 -0.0314961 0.00787402 0.00000 0.00000
37556.2 -0.00787402 -0.00787402 -0.0314961 -0.0314961 0.00000 -0.00787402 -0.0236220 -0.00787402
37556.2 -0.0157480 -0.0551181 -0.0393701 0.00000 -0.0314961 -0.00787402 -0.00787402 -0.0157480
37573.1 -0.0393701 -0.0472441 -0.0236220 0.0551181 -0.0866142 -0.0314961 -0.0157480 -0.0236220
37573.1 0.0157480 0.00787402 0.0236220 0.00000 0.102362 0.0314961 -0.00787402 -0.0157480
37592.2 -0.0157480 -0.0314961 0.0314961 -0.157480 -0.0393701 0.0314961 0.0157480 0.00000
37592.2 -0.0393701 0.0314961 -0.0472441 0.0236220 -0.0236220 -0.00787402 -0.00787402 -0.0236220
37602.0 0.0236220 -0.0472441 0.0629921 -0.00787402 0.00787402 0.0157480 0.00787402 0.0157480
37602.0 -0.0236220 0.0944882 0.00787402 0.0472441 -0.0551181 -0.0393701 -0.0236220 -0.00787402
37615.6 -0.0157480 -0.0393701 -0.00787402 0.0236220 0.0157480 -0.0236220 -0.00787402 -0.0157480
37615.6 0.00000 0.00787402 -0.0157480 -0.0236220 -0.0472441 -0.0157480 -0.0157480 0.00787402
37631.0 0.00000 0.0551181 -0.0708661 -0.0314961 0.0157480 -0.0157480 -0.00787402 -0.0157480
37631.0 -0.00787402 -0.0236220 0.0314961 -0.00787402 -0.00787402 0.00787402 -0.00787402 -0.00787402
37656.2 -0.0551181 -0.165354 0.00000 -0.0472441 -0.00787402 0.00787402 0.00000 0.0157480
37656.2 0.0393701 0.0708661 -0.0314961 0.00787402 0.0157480 -0.0236220 -0.0236220 -0.00787402
37666.2 0.00787402 0.0944882 -0.125984 -0.0708661 -0.0708661 0.00787402 -0.00787402 -0.0236220
37666.2 -0.0393701 -0.0787402 0.125984 0.0393701 0.00787402 0.0236220 0.00000 -0.0157480
37676.9 0.00000 0.149606 -0.125984 0.0393701 0.0472441 -0.0157480 -0.00787402 -0.00787402
37676.9 0.0314961 -0.118110 0.118110 -0.0787402 0.0157480 -0.00787402 0.00000 0.0157480
37697.9 0.0157480 0.0393701 0.0708661 0.0236220 0.0314961 -0.0236220 -0.0157480 0.00000
37697.9 0.00000 -0.0314961 0.0236220 0.0236220 0.0551181 0.00000 0.00787402 -0.00787402
37713.7 -0.00787402 0.0157480 0.0236220 -0.0314961 -0.0472441 -0.00787402 -0.00787402 -0.00787402
37713.7 -0.0157480 0.0236220 -0.0551181 0.0787402 -0.00787402 -0.00787402 -0.00787402 -0.0157480
37721.2 -0.0393701 -0.291339 0.0314961 -0.0708661 0.0708661 0.00000 -0.00787402 0.00000
37721.2 -0.0236220 0.00787402 -0.0157480 -0.0236220 -0.0393701 -0.00787402 0.00787402 0.0157480
37742.4 0.00000 0.0787402 -0.102362 0.0629921 -0.0551181 -0.0314961 -0.0157480 -0.00787402
37742.4 -0.0236220 -0.0866142 0.0708661 -0.0236220 0.00787402 -0.0157480 0.00000 -0.00787402
37744.5 0.0157480 0.0157480 0.0393701 0.00000 0.00787402 -0.00787402 0.00000 -0.00787402
37744.5 0.0157480 0.0944882 -0.0629921 -0.0157480 -0.0866142 -0.0314961 -0.0157480 -0.0157480
37751.0 -0.0236220 -0.0472441 0.00000 0.0157480 0.0393701 0.00787402 0.00000 -0.00787402
37751.0 0.0314961 0.125984 -0.0866142 -0.0629921 0.0393701 -0.0157480 -0.00787402 0.00000
37772.1 0.0393701 -0.0236220 0.0787402 0.0157480 -0.0472441 -0.0236220 -0.00787402 0.00787402
37772.1 -0.0157480 -0.0157480 0.0314961 0.0314961 -0.0393701 0.00000 -0.00787402 0.00000
37782.0 -0.0157480 0.00000 -0.0472441 -0.0236220 0.00000 -0.00787402 -0.00787402 -0.0157480
37782.0 0.00000 -0.0787402 0.0314961 0.00000 0.00787402 0.00000 0.00787402 0.00000
37827.9 -0.00787402 -0.0157480 0.00787402 0.0157480 0.0157480 0.0236220 0.0157480 -0.0157480
37827.9 0.0157480 0.0236220 -0.0236220 0.0551181 0.0393701 -0.0236220 -0.0157480 -0.00787402
37841.0 0.00787402 -0.141732 0.173228 0.0393701 -0.0708661 -0.00787402 0.00000 0.0157480
37841.0 -0.00787402 -0.0708661 -0.0157480 -0.0157480 -0.00787402 0.00787402 0.00000 -0.00787402
37877.3 -0.0472441 -0.0472441 -0.0787402 0.0393701 -0.00787402 -0.0157480 -0.0157480 -0.0157480
37877.3 0.00000 0.0157480 -0.0157480 0.0551181 0.0236220 -0.0157480 -0.0157480 0.00787402
37893.9 -0.00787402 0.0236220 -0.0157480 -0.0314961 0.00000 -0.00787402 0.00000 -0.00787402
37893.9 -0.00787402 -0.0236220 0.0393701 0.00000 -0.0393701 -0.00787402 -0.00787402 -0.00787402
37910.7 -0.0157480 0.0236220 -0.0708661 -0.0314961 -0.0236220 -0.0157480 -0.0236220 -0.0236220
37910.7 0.00787402 0.141732 0.0236220 0.0314961 0.0551181 0.00000 -0.00787402 -0.0157480
37961.2 -0.0236220 -0.0393701 -0.0314961 -0.0472441 -0.00787402 0.00000 -0.0157480 0.00000
37961.2 -0.0314961 -0.0472441 -0.0236220 0.0472441 0.00787402 0.00000 0.00787402 -0.00787402
37968.5 0.00787402 0.00000 -0.0393701 -0.0314961 -0.0314961 -0.0157480 -0.0157480 -0.0157480
37968.5 -0.00787402 0.0157480 -0.0314961 0.0393701 0.0629921 0.0236220 -0.00787402 -0.00787402
37978.3 -0.0157480 0.0157480 -0.0236220 -0.0551181 -0.0157480 -0.0236220 -0.0236220 -0.0236220
37978.3 -0.0157480 -0.0314961 -0.0236220 0.00787402 0.0157480 -0.0157480 0.00000 -0.0157480
37991.0 -0.0157480 -0.0393701 -0.0629921 -0.0944882 0.00000 0.00000 0.00000 -0.00787402
37991.0 -0.0236220 -0.0393701 -0.0629921 0.0472441 0.00787402 -0.0157480 0.00000 0.00000
38013.6 -0.0236220 -0.0551181 -0.0472441 0.0787402 -0.0236220 -0.0236220 -0.00787402 -0.0236220
38013.6 -0.0314961 0.00000 -0.0314961 -0.0708661 0.0157480 0.00000 -0.0157480 -0.0157480
38021.1 0.0157480 0.0787402 -0.0236220 -0.0314961 0.00787402 -0.0157480 -0.00787402 0.00787402
38021.1 0.00000 -0.0708661 -0.00787402 0.0157480 0.0157480 -0.0157480 -0.00787402 0.00787402
38056.6 -0.0157480 0.00000 0.0629921 0.0629921 0.0157480 -0.00787402 0.00787402 0.00000
38056.6 0.00787402 0.0393701 0.00000 -0.0472441 0.0157480 -0.00787402 -0.00787402 -0.00787402
38080.3 -0.0472441 -0.0236220 -0.0708661 -0.0708661 0.00787402 0.00787402 -0.0157480 -0.0236220
38080.3 -0.0157480 -0.00787402 0.0551181 -0.00787402 0.0314961 0.00000 -0.0236220 -0.00787402
38094.2 0.00000 0.0236220 0.0629921 0.0629921 -0.00787402 0.00000 -0.0157480 0.00000
38094.2 0.00000 0.0157480 0.00000 0.0236220 -0.0472441 -0.0236220 -0.00787402 0.00000
38103.4 0.00787402 0.0314961 -0.0944882 -0.0944882 0.0157480 -0.00787402 -0.0157480 -0.0157480
38103.4 -0.00787402 -0.0236220 0.0944882 0.00000 -0.0314961 0.00787402 0.00000 0.00000
38118.3 0.0157480 0.0629921 -0.0866142 -0.0236220 0.00787402 -0.0393701 -0.0157480 -0.0157480
38118.3 -0.0314961 -0.0551181 -0.110236 0.0472441 0.0314961 -0.0157480 -0.00787402 -0.00787402
38126.1 -0.0236220 -0.0551181 0.0314961 0.00787402 -0.0236220 -0.00787402 -0.00787402 0.00000
38126.1 -0.0236220 -0.0787402 -0.110236 -0.0393701 -0.0472441 0.00787402 0.00000 -0.00787402
38133.7 0.0157480 0.0629921 0.00787402 -0.0393701 -0.0551181 -0.0157480 -0.00787402 -0.0157480
38133.7 0.00787402 0.0236220 -0.0236220 0.125984 0.0472441 -0.0157480 -0.0236220 0.00000
38143.6 0.0314961 0.188976 0.00787402 0.102362 0.0393701 -0.00787402 -0.00787402 -0.00787402
38143.6 0.00000 -0.0551181 -0.00787402 0.0157480 0.0314961 -0.00787402 -0.0157480 0.00000
38156.7 0.00000 -0.0157480 -0.0393701 -0.0393701 -0.0787402 0.00000 -0.0157480 -0.00787402
38156.7 -0.0236220 -0.0314961 0.0236220 -0.125984 -0.0472441 -0.0314961 -0.00787402 -0.0157480
38174.6 -0.0157480 0.00787402 0.110236 0.0944882 -0.0314961 -0.0157480 -0.00787402 -0.00787402
38174.6 0.00787402 -0.0157480 0.0314961 -0.0157480 0.0157480 0.00000 0.00000 0.00000
38186.1 -0.0551181 -0.0314961 -0.0236220 -0.0472441 -0.0629921 0.00787402 0.00000 -0.0236220
