2.09581 -0.0157480 -0.00787402 -0.0157480 0.00000 -0.0157480 0.00787402 0.00000 0.00787402
2.09581 0.00000 0.00000 0.00000 0.00000 0.00787402 0.00787402 -0.0157480 0.00787402
16.9415 0.00000 -0.00787402 -0.0157480 -0.00787402 -0.00787402 -0.0157480 0.00000 -0.00787402
16.9415 0.00000 -0.00787402 -0.0236220 0.00000 -0.0157480 -0.00787402 0.00000 -0.00787402
22.5888 -0.00787402 -0.0157480 -0.0157480 -0.00787402 0.00000 -0.00787402 -0.00787402 -0.0157480
22.5888 0.0157480 0.00000 0.00000 -0.0157480 0.00000 0.00787402 -0.00787402 -0.00787402
46.3260 -0.00787402 0.00000 0.00787402 -0.00787402 0.00787402 0.00000 -0.00787402 -0.00787402
46.3260 0.00000 -0.00787402 0.00000 0.00000 -0.00787402 0.00000 -0.0157480 0.00000
61.9189 -0.00787402 0.00000 -0.00787402 -0.00787402 0.00787402 -0.00787402 0.00787402 0.00000
61.9189 -0.00787402 -0.0157480 -0.0157480 0.00000 -0.00787402 -0.00787402 0.00000 -0.00787402
69.6435 -0.00787402 -0.0236220 -0.00787402 0.00787402 -0.0157480 -0.00787402 -0.00787402 -0.00787402
69.6435 -0.00787402 -0.0157480 0.00000 -0.00787402 -0.00787402 0.00000 0.00000 0.00000
76.9705 0.00000 -0.00787402 -0.00787402 -0.0157480 0.00787402 0.00000 -0.00787402 0.00000
76.9705 0.00000 0.00000 -0.00787402 0.00000 -0.00787402 -0.00787402 -0.00787402 -0.00787402
92.4203 0.00000 0.00000 0.00000 -0.0157480 -0.00787402 -0.00787402 -0.0236220 -0.00787402
92.4203 0.00787402 -0.00787402 -0.00787402 0.00000 0.0236220 -0.00787402 -0.00787402 -0.00787402
106.993 0.0236220 -0.0236220 0.00000 -0.00787402 0.00000 0.0157480 0.00787402 -0.00787402
106.993 -0.0314961 -0.0236220 -0.0157480 0.00000 -0.00787402 0.00000 -0.00787402 -0.0157480
114.892 -0.00787402 0.00000 0.00787402 0.00000 0.00787402 -0.00787402 0.00000 0.00000
114.892 0.00787402 0.00000 0.00000 -0.00787402 0.00000 0.00000 0.00000 0.00000
122.553 -0.00787402 -0.00787402 -0.0157480 -0.00787402 -0.0157480 0.00787402 -0.0157480 0.00000
122.553 0.00000 -0.00787402 -0.00787402 -0.0157480 0.00787402 -0.0236220 0.00000 0.00000
127.736 -0.00787402 -0.00787402 -0.00787402 0.00000 0.00787402 0.00000 0.0157480 0.00000
127.736 -0.00787402 0.00000 0.00787402 -0.00787402 0.00000 0.0157480 -0.0157480 -0.00787402
152.051 -0.00787402 0.00000 -0.00787402 -0.00787402 0.00000 -0.00787402 0.00787402 0.00000
152.051 -0.00787402 -0.00787402 -0.0157480 -0.00787402 0.00787402 0.00787402 -0.00787402 -0.00787402
159.645 -0.00787402 -0.0236220 -0.00787402 0.00000 -0.0236220 0.00787402 -0.0157480 0.00000
159.645 0.00000 0.00000 0.00787402 0.00000 -0.00787402 -0.0157480 -0.00787402 0.00787402
172.046 -0.00787402 0.00000 0.00000 0.00787402 -0.0157480 -0.00787402 0.00000 0.00000
172.046 0.00787402 0.0157480 -0.00787402 -0.00787402 -0.0236220 -0.0236220 -0.00787402 0.00000
189.912 -0.00787402 0.00000 0.00000 0.00000 -0.0157480 0.00000 0.00000 -0.0157480
189.912 -0.00787402 -0.00787402 -0.00787402 -0.00787402 0.00000 0.00787402 -0.00787402 0.00000
196.995 -0.0157480 -0.00787402 -0.00787402 -0.0157480 -0.00787402 0.00787402 0.00000 -0.00787402
196.995 0.00787402 -0.00787402 0.00000 0.00000 -0.00787402 -0.0157480 0.00000 0.00787402
219.527 -0.0236220 0.00000 -0.00787402 -0.0157480 0.00787402 0.00000 -0.00787402 0.00000
219.527 -0.0157480 0.00787402 0.00000 0.00787402 -0.0157480 -0.00787402 0.00000 0.00000
234.550 -0.00787402 -0.00787402 -0.0157480 -0.00787402 0.00000 0.00000 -0.00787402 -0.00787402
234.550 -0.00787402 -0.00787402 0.00000 -0.00787402 -0.00787402 -0.0157480 -0.00787402 -0.00787402
255.524 0.00787402 -0.00787402 0.00000 0.00000 0.00000 0.00000 -0.00787402 0.00000
257.687 -0.0157480 0.00000 -0.00787402 -0.00787402 -0.00787402 0.00000 -0.00787402 0.00000
264.490 0.00000 -0.0157480 -0.00787402 0.00000 0.00000 -0.0157480 -0.00787402 -0.00787402
264.490 -0.00787402 -0.0157480 0.00787402 -0.0236220 -0.00787402 -0.0157480 0.00000 -0.0157480
287.063 0.00000 -0.00787402 0.00000 -0.00787402 -0.00787402 -0.00787402 0.00000 -0.0157480
287.063 -0.0157480 0.00000 0.00000 0.00787402 -0.00787402 -0.00787402 -0.0157480 -0.0157480
309.115 -0.00787402 0.00787402 -0.00787402 0.00000 -0.0157480 -0.00787402 0.00787402 -0.00787402
309.115 -0.0157480 -0.00787402 -0.0157480 0.00000 0.00000 0.00787402 -0.00787402 0.00000
316.993 -0.00787402 -0.00787402 0.00000 -0.00787402 -0.00787402 -0.00787402 -0.00787402 0.00000
316.993 0.00000 -0.00787402 0.00000 -0.00787402 -0.00787402 -0.0236220 -0.0157480 -0.00787402
325.108 -0.0157480 0.00000 -0.0157480 0.00000 0.00000 0.00000 -0.00787402 -0.0157480
325.108 0.00000 0.00000 -0.00787402 -0.00787402 -0.0157480 -0.0157480 0.00000 -0.00787402
332.069 0.00787402 -0.00787402 -0.00787402 -0.0157480 -0.00787402 0.00000 -0.00787402 0.00000
332.069 -0.00787402 -0.0236220 -0.00787402 -0.0157480 -0.00787402 -0.0157480 0.00000 0.00787402
339.501 -0.0157480 -0.00787402 0.00000 0.00000 -0.00787402 -0.00787402 0.00000 -0.00787402
339.501 -0.00787402 0.00000 0.00000 0.00000 -0.0157480 -0.00787402 -0.00787402 -0.0236220
346.884 -0.0157480 -0.00787402 0.00787402 -0.00787402 0.00000 -0.00787402 -0.00787402 -0.00787402
346.884 0.00000 0.00000 0.00000 -0.0236220 0.00000 0.0157480 0.00000 -0.00787402
355.047 -0.00787402 0.00000 0.00000 -0.00787402 -0.0157480 -0.00787402 0.00787402 -0.00787402
355.047 -0.00787402 0.00000 0.00000 0.00000 0.0236220 0.00000 0.00787402 0.00000
362.031 -0.00787402 -0.00787402 -0.00787402 0.00000 -0.0236220 -0.00787402 0.00787402 0.00000
362.031 0.00000 -0.00787402 -0.0157480 -0.0157480 -0.0157480 0.00000 -0.00787402 -0.00787402
369.492 -0.00787402 -0.00787402 0.00000 -0.00787402 0.00000 -0.0157480 -0.00787402 -0.0157480
369.492 0.00787402 0.00000 0.00000 0.00787402 -0.0157480 0.00000 0.00787402 0.00787402
384.570 0.00000 -0.00787402 -0.0236220 -0.0157480 0.00787402 -0.0236220 -0.0314961 -0.00787402
384.570 0.00000 0.00000 0.00000 0.0236220 -0.00787402 -0.0157480 -0.0157480 0.00000
391.973 -0.0157480 0.00000 -0.00787402 0.00000 0.0157480 0.00787402 0.00000 -0.00787402
391.973 0.00000 -0.00787402 -0.00787402 0.00000 -0.0236220 0.0157480 0.00000 0.00000
414.633 0.00000 -0.00787402 -0.00787402 -0.0157480 -0.0236220 -0.0157480 0.00000 0.00000
414.633 0.00787402 -0.00787402 -0.00787402 0.0157480 0.0157480 0.00787402 -0.00787402 0.00000
422.485 -0.00787402 -0.00787402 -0.0236220 -0.00787402 0.00787402 -0.00787402 -0.00787402 0.00000
422.485 -0.0393701 -0.00787402 0.00787402 -0.00787402 0.00787402 -0.0236220 -0.0393701 -0.0157480
429.514 0.0236220 0.00000 -0.0157480 0.00000 -0.0157480 0.0314961 0.00787402 0.0157480
429.514 -0.0393701 -0.0157480 0.00787402 -0.0157480 -0.0157480 0.00787402 -0.0157480 -0.0157480
437.903 0.00000 0.00787402 -0.00787402 -0.00787402 0.00000 -0.00787402 0.00000 0.00000
437.903 -0.00787402 -0.00787402 -0.0236220 -0.00787402 -0.0236220 0.0236220 0.0157480 0.00787402
452.064 0.00787402 0.00787402 0.0236220 0.00000 -0.0157480 -0.0629921 -0.0314961 -0.0157480
452.064 -0.00787402 -0.0157480 -0.0236220 -0.00787402 0.00787402 -0.00787402 -0.0157480 -0.0236220
459.647 0.0157480 0.00787402 -0.0157480 -0.00787402 -0.0157480 0.0236220 0.00787402 0.00000
459.647 -0.00787402 -0.00787402 0.00000 -0.0157480 0.00000 0.00787402 0.00787402 -0.00787402
466.938 -0.0157480 0.0157480 0.00000 0.00000 0.00787402 0.00787402 0.0236220 -0.00787402
466.938 0.0236220 0.00000 -0.0157480 -0.0157480 -0.0314961 -0.0393701 -0.0314961 -0.0157480
482.056 -0.0629921 -0.0708661 -0.0157480 0.00000 0.00000 -0.00787402 -0.0314961 -0.0236220
482.056 0.00787402 0.00787402 0.00000 0.00000 0.0157480 -0.0157480 -0.0157480 -0.00787402
489.865 -0.00787402 -0.0157480 0.00787402 -0.00787402 -0.00787402 0.00787402 -0.00787402 0.00000
489.865 -0.00787402 0.00787402 0.00000 0.00000 0.00000 0.00787402 0.0236220 0.00000
496.949 0.0157480 -0.00787402 -0.00787402 0.00000 -0.0157480 -0.0157480 0.00787402 -0.00787402
496.949 0.00000 -0.0236220 -0.00787402 -0.0236220 0.00000 0.0314961 0.0157480 0.00000
519.481 -0.0314961 -0.0236220 -0.00787402 -0.0157480 0.00787402 -0.0472441 -0.0472441 -0.0157480
519.481 0.0157480 0.00000 0.00000 -0.00787402 0.00000 0.00000 0.0157480 0.00000
534.188 -0.00787402 0.00787402 0.00000 0.00000 -0.00787402 -0.00787402 -0.0236220 0.00000
534.188 -0.0157480 -0.00787402 -0.0157480 0.00000 -0.0236220 0.00000 0.0157480 0.00000
542.409 0.00000 -0.00787402 -0.00787402 0.00000 0.00000 0.0157480 0.00787402 -0.00787402
542.409 -0.00787402 0.00000 0.00000 0.00787402 0.00000 0.00787402 0.00000 -0.00787402
549.446 -0.00787402 -0.00787402 0.00000 0.00000 -0.0157480 0.0157480 0.00000 -0.00787402
549.446 0.00000 -0.00787402 -0.00787402 0.00000 0.00000 0.00000 -0.0157480 -0.0157480
557.025 -0.0236220 -0.00787402 -0.00787402 0.00000 0.00000 0.00787402 -0.00787402 0.00000
557.025 -0.0157480 -0.0157480 -0.00787402 -0.0157480 -0.0236220 -0.0314961 -0.00787402 0.00000
564.182 0.00787402 0.00000 0.00000 -0.0157480 0.00000 0.00787402 -0.00787402 0.00000
564.182 -0.00787402 0.00787402 0.00000 -0.00787402 -0.0157480 -0.00787402 -0.0157480 -0.0157480
572.406 -0.00787402 -0.0157480 -0.00787402 -0.0157480 0.00000 -0.00787402 -0.00787402 -0.00787402
572.406 0.00000 -0.00787402 0.00787402 -0.00787402 -0.00787402 0.00000 0.00787402 0.00000
578.597 -0.00787402 0.00000 -0.00787402 -0.0157480 -0.00787402 -0.0236220 -0.00787402 0.00000
578.597 0.00787402 -0.00787402 -0.0157480 -0.00787402 -0.0157480 -0.00787402 0.00000 -0.00787402
587.022 0.00000 -0.00787402 -0.0157480 0.0157480 0.00000 0.00787402 0.00787402 0.00000
587.022 0.00000 0.00000 -0.0157480 -0.00787402 0.00000 0.00787402 -0.0157480 -0.0157480
594.508 0.00787402 0.00787402 0.00000 -0.0157480 -0.0236220 -0.0236220 -0.0236220 -0.0157480
594.508 0.00000 0.00000 0.00000 0.00000 -0.00787402 -0.0393701 -0.00787402 -0.00787402
602.100 0.00000 -0.00787402 -0.0236220 0.00000 -0.0157480 0.0314961 0.00000 -0.00787402
602.100 -0.0314961 0.00000 -0.00787402 0.00000 -0.00787402 0.00000 0.00000 -0.00787402
607.515 0.00000 -0.0157480 -0.00787402 0.00000 -0.00787402 -0.00787402 -0.00787402 0.00000
607.515 -0.00787402 0.00000 -0.00787402 -0.00787402 0.00000 -0.0157480 -0.0157480 -0.00787402
624.344 0.00000 0.00000 0.00000 -0.00787402 -0.0157480 0.00000 -0.0157480 -0.00787402
624.344 0.00000 -0.00787402 -0.0236220 -0.00787402 0.00000 -0.00787402 -0.0157480 0.00787402
631.686 -0.00787402 -0.00787402 -0.00787402 -0.0157480 -0.00787402 0.00000 -0.00787402 0.00000
631.686 0.00000 -0.00787402 0.00000 -0.00787402 0.00000 -0.0236220 -0.0157480 0.00000
647.049 0.00000 -0.00787402 -0.00787402 -0.0157480 0.00000 -0.0157480 -0.0157480 0.00000
647.049 0.00787402 -0.0157480 0.00000 -0.0236220 0.00000 0.00000 -0.0157480 0.00000
654.911 -0.0157480 0.00000 -0.0157480 0.00000 -0.0236220 -0.0157480 0.00000 -0.00787402
654.911 -0.00787402 -0.00787402 0.00000 -0.00787402 -0.00787402 -0.00787402 0.00787402 0.00000
661.660 -0.00787402 -0.00787402 -0.0157480 0.00000 -0.00787402 -0.0314961 -0.00787402 0.00000
661.660 0.00787402 -0.0157480 -0.0157480 0.00787402 0.00000 -0.0157480 0.00000 -0.00787402
669.603 -0.00787402 -0.00787402 0.00000 -0.00787402 -0.00787402 0.00000 0.00000 0.00000
669.603 -0.0157480 -0.00787402 -0.00787402 -0.0157480 0.00000 -0.00787402 -0.0157480 -0.00787402
707.520 -0.00787402 -0.00787402 -0.00787402 -0.0236220 0.00000 0.00787402 -0.00787402 -0.00787402
707.520 -0.00787402 0.00000 -0.0157480 -0.00787402 0.0157480 0.00000 0.00000 0.00000
714.520 -0.00787402 -0.00787402 -0.00787402 -0.00787402 0.00000 0.00000 -0.00787402 -0.00787402
714.520 0.00000 0.00000 -0.00787402 0.00000 -0.00787402 -0.00787402 0.00000 -0.0157480
729.445 0.00000 0.00787402 -0.00787402 -0.00787402 0.00000 -0.0236220 -0.00787402 0.00000
729.445 -0.00787402 -0.00787402 0.00787402 0.00000 -0.0157480 0.00000 -0.0157480 -0.00787402
742.992 -0.00787402 -0.0157480 -0.00787402 0.00000 0.00000 -0.0157480 -0.00787402 0.0157480
742.992 -0.0157480 -0.00787402 0.00000 -0.00787402 -0.00787402 0.00000 0.00000 -0.00787402
751.995 0.00787402 -0.00787402 0.00787402 -0.00787402 -0.0236220 -0.00787402 -0.00787402 0.00000
751.995 0.00787402 0.00787402 -0.00787402 -0.0236220 0.00000 -0.0236220 -0.00787402 -0.00787402
767.010 0.00000 0.00000 0.00787402 0.00000 0.00000 0.00000 -0.0157480 -0.0157480
767.010 0.00000 -0.00787402 -0.00787402 -0.00787402 0.00000 -0.0157480 -0.0157480 -0.00787402
789.522 -0.0157480 -0.0236220 -0.00787402 -0.00787402 -0.00787402 -0.00787402 -0.00787402 0.00787402
789.522 -0.0157480 -0.00787402 -0.0157480 0.00787402 -0.00787402 0.00000 -0.0157480 -0.00787402
797.066 -0.0157480 0.00000 -0.00787402 0.00000 0.00000 0.00787402 -0.00787402 0.00000
797.066 0.00787402 -0.00787402 -0.00787402 -0.00787402 0.00000 -0.0157480 -0.00787402 0.00000
812.001 -0.00787402 0.00000 0.00000 -0.00787402 -0.0157480 0.00000 0.00000 -0.00787402
812.001 0.00000 -0.00787402 0.00000 0.00000 -0.0157480 -0.0157480 -0.0157480 0.00787402
819.537 -0.00787402 0.00000 -0.00787402 0.00000 0.00787402 0.00000 0.00000 -0.00787402
819.537 -0.00787402 -0.00787402 -0.00787402 -0.00787402 -0.0157480 0.00000 -0.00787402 0.00787402
827.106 -0.00787402 0.00000 -0.00787402 -0.00787402 -0.00787402 0.00000 0.00000 -0.0157480
827.106 0.00000 0.00000 -0.00787402 -0.0157480 -0.0157480 -0.00787402 -0.00787402 -0.00787402
842.492 -0.00787402 -0.0157480 0.00000 -0.00787402 0.00787402 -0.0157480 -0.00787402 0.00000
842.492 -0.00787402 -0.00787402 -0.0157480 -0.00787402 0.00000 0.00787402 0.00000 -0.0157480
857.547 0.00000 0.00000 -0.00787402 -0.00787402 0.00787402 0.00000 -0.00787402 -0.00787402
857.547 -0.00787402 -0.00787402 0.00000 -0.00787402 -0.0157480 -0.00787402 -0.0236220 -0.0157480
864.491 -0.00787402 0.00000 -0.0157480 0.00000 -0.00787402 0.00787402 -0.00787402 -0.0157480
864.491 0.00787402 0.00000 -0.00787402 -0.00787402 -0.00787402 0.0157480 0.00000 0.00000
872.553 0.0157480 0.00000 0.00787402 -0.0157480 -0.0157480 0.00787402 -0.0157480 0.00787402
872.553 0.00000 -0.0157480 0.00000 0.00787402 0.00000 -0.0157480 -0.00787402 0.00000
879.476 -0.0157480 -0.0157480 -0.0157480 -0.00787402 0.00000 -0.0236220 -0.00787402 -0.0157480
879.476 -0.0157480 -0.00787402 -0.0157480 0.00000 -0.00787402 -0.0157480 -0.00787402 -0.0157480
894.623 -0.00787402 -0.00787402 -0.00787402 -0.00787402 0.00000 -0.0314961 0.00787402 0.00000
894.623 0.00000 -0.00787402 0.00000 0.00787402 0.00000 0.0157480 0.00787402 0.00000
902.009 0.00000 -0.00787402 -0.00787402 -0.00787402 -0.0236220 -0.00787402 -0.0157480 -0.00787402
902.009 -0.00787402 -0.00787402 -0.0157480 0.00000 -0.00787402 -0.0157480 0.00000 -0.00787402
908.865 -0.00787402 0.00000 -0.00787402 -0.00787402 -0.00787402 0.0157480 -0.00787402 -0.00787402
908.865 -0.0157480 -0.00787402 0.00000 -0.0157480 0.0157480 -0.0236220 -0.00787402 -0.0157480
917.025 -0.00787402 -0.00787402 0.00000 -0.0157480 -0.00787402 0.00000 -0.00787402 -0.00787402
917.025 -0.0157480 0.00787402 0.00000 0.00000 0.00000 0.00787402 0.00000 0.00000
922.820 -0.00787402 0.00000 -0.0157480 0.00000 -0.00787402 0.0157480 -0.00787402 -0.00787402
922.820 0.00000 -0.00787402 0.00000 -0.00787402 0.00000 -0.0157480 -0.0157480 0.00787402
931.969 0.00000 0.00000 0.00000 -0.00787402 -0.00787402 -0.0157480 -0.00787402 -0.0157480
931.969 0.00000 -0.00787402 -0.00787402 0.00000 0.00000 -0.00787402 -0.00787402 0.00000
947.000 -0.00787402 -0.0157480 0.00000 -0.00787402 -0.0236220 0.00787402 -0.00787402 -0.0157480
947.000 0.00000 -0.0157480 -0.00787402 -0.0157480 -0.0236220 -0.00787402 0.00000 -0.00787402
954.575 -0.0157480 -0.00787402 -0.0157480 0.00000 0.00000 0.00000 0.00787402 0.00787402
954.575 0.00787402 -0.0157480 0.00000 -0.00787402 -0.00787402 0.0157480 0.00000 -0.00787402
967.026 0.00000 -0.00787402 -0.0157480 0.00787402 0.00000 -0.0157480 0.00000 0.00787402
967.026 0.00000 0.00787402 0.00000 0.00000 -0.0236220 0.00787402 0.00000 -0.00787402
977.088 0.00787402 -0.00787402 -0.0157480 0.00787402 -0.0236220 0.00787402 -0.0157480 -0.00787402
977.088 -0.00787402 0.00000 -0.00787402 -0.00787402 -0.00787402 0.00787402 -0.00787402 0.00000
992.455 0.00000 -0.00787402 0.00000 -0.00787402 0.00000 0.0236220 -0.00787402 -0.0236220
992.455 -0.00787402 0.00000 -0.0157480 0.00000 -0.00787402 -0.0157480 -0.00787402 -0.00787402
997.044 -0.00787402 -0.00787402 -0.00787402 -0.00787402 0.00787402 0.00000 0.00000 -0.00787402
997.044 -0.0157480 -0.0157480 0.00000 -0.00787402 -0.0157480 -0.0314961 -0.00787402 0.00000
1021.71 -0.00787402 -0.00787402 -0.00787402 0.00000 0.00787402 -0.00787402 0.00000 -0.00787402
1021.71 -0.00787402 0.00000 0.00000 0.00000 -0.00787402 0.00787402 -0.00787402 0.00000
1029.61 -0.00787402 -0.0157480 0.00000 -0.00787402 0.00000 -0.00787402 0.00000 -0.00787402
1029.61 0.00000 -0.0157480 -0.00787402 0.00000 -0.00787402 -0.0236220 0.00000 -0.00787402
1044.54 0.00000 -0.00787402 -0.0157480 -0.0157480 0.00000 -0.0236220 -0.00787402 0.00000
1044.54 0.00000 0.00000 -0.00787402 -0.0236220 0.00000 -0.00787402 0.00000 0.00000
1067.08 -0.00787402 -0.0157480 0.00787402 0.00000 0.00000 -0.0236220 -0.00787402 0.00787402
1067.08 -0.00787402 -0.00787402 -0.0157480 0.00000 0.00787402 0.00787402 -0.00787402 -0.00787402
1074.67 0.00000 -0.00787402 0.00000 0.00787402 0.00000 0.00000 0.00000 -0.00787402
1074.67 0.00787402 -0.00787402 0.00000 0.00787402 -0.00787402 0.00787402 0.00787402 -0.0157480
1082.01 -0.0157480 -0.00787402 -0.0157480 -0.00787402 -0.0157480 -0.00787402 -0.00787402 -0.0157480
1082.01 -0.00787402 0.00000 0.00000 -0.00787402 -0.00787402 0.00000 -0.00787402 0.00000
1089.78 -0.00787402 -0.0157480 0.00787402 -0.00787402 0.00000 -0.00787402 -0.00787402 0.00000
1089.78 -0.0157480 0.00000 -0.00787402 -0.0157480 -0.0157480 -0.0236220 0.00000 0.00000
1096.95 0.00000 -0.00787402 -0.0157480 0.00000 -0.0157480 -0.0236220 -0.00787402 0.00000
1096.95 0.00000 0.00000 -0.0157480 0.00000 0.00000 -0.0157480 -0.00787402 -0.0157480
1105.19 -0.0157480 -0.0157480 -0.00787402 -0.0157480 -0.00787402 -0.0157480 0.00000 0.00787402
1105.19 0.00000 -0.00787402 -0.00787402 -0.00787402 0.00000 -0.0236220 -0.0157480 -0.00787402
1112.11 -0.00787402 0.00000 0.00000 0.00787402 0.00000 -0.00787402 0.00000 -0.0157480
1112.11 -0.00787402 -0.00787402 -0.00787402 -0.0157480 0.00000 0.00787402 0.00000 -0.00787402
1127.00 0.00000 -0.00787402 -0.0157480 0.00000 0.00000 0.00787402 0.00787402 0.00787402
1127.00 -0.00787402 -0.00787402 -0.0157480 0.00000 -0.00787402 -0.00787402 -0.00787402 0.00000
1134.12 -0.00787402 -0.00787402 0.00000 -0.00787402 -0.00787402 0.0157480 0.00000 0.00000
1134.12 0.00787402 0.00000 0.00000 0.00000 -0.00787402 0.00787402 -0.00787402 -0.00787402
1142.37 -0.00787402 0.00000 -0.0157480 0.00000 -0.00787402 -0.0157480 -0.00787402 0.00000
1142.37 0.00000 -0.00787402 -0.00787402 -0.00787402 -0.0157480 0.00000 -0.00787402 0.00000
1149.38 -0.00787402 0.00000 -0.00787402 -0.00787402 0.00000 0.00000 -0.0157480 -0.0157480
1149.38 -0.00787402 -0.00787402 -0.00787402 -0.0157480 0.00787402 0.00787402 -0.00787402 -0.0157480
1164.15 -0.00787402 -0.0157480 0.00000 -0.00787402 -0.0157480 0.00000 0.00000 -0.0157480
1164.15 -0.0157480 0.00000 0.00787402 0.00000 0.00787402 -0.00787402 -0.00787402 -0.00787402
1172.60 -0.0157480 0.00000 -0.0157480 -0.00787402 0.00000 -0.0157480 0.00000 0.00000
1172.60 -0.0157480 0.00000 -0.0157480 0.00000 -0.00787402 -0.00787402 0.00000 -0.00787402
1186.96 -0.00787402 -0.00787402 0.00000 0.00000 0.00000 -0.00787402 -0.0157480 0.00000
1186.96 -0.00787402 -0.00787402 0.00000 -0.00787402 -0.00787402 0.00787402 -0.00787402 0.00000
1194.50 -0.00787402 -0.00787402 0.00000 -0.00787402 0.00000 0.00000 0.00000 0.00787402
1194.50 -0.00787402 -0.00787402 -0.00787402 -0.00787402 -0.00787402 -0.0236220 0.00000 0.00000
1202.03 0.00787402 0.00000 -0.0157480 -0.00787402 -0.0157480 -0.00787402 0.00787402 -0.00787402
1202.03 -0.00787402 0.00000 0.00000 0.00787402 -0.0157480 -0.0236220 0.00787402 -0.0157480
1209.94 -0.00787402 -0.0236220 -0.0157480 -0.00787402 -0.0157480 -0.0157480 0.00787402 -0.00787402
1209.94 -0.00787402 -0.00787402 0.00000 -0.0157480 0.00000 0.0157480 0.00000 -0.00787402
1232.07 -0.00787402 0.00000 0.00787402 0.00000 0.00787402 0.00787402 -0.00787402 -0.0157480
1232.07 0.00000 -0.0157480 -0.00787402 0.00000 0.00000 0.00000 -0.00787402 -0.00787402
1247.04 0.00000 0.00787402 -0.0157480 0.00000 -0.0157480 -0.0157480 -0.00787402 -0.00787402
1247.04 -0.00787402 -0.00787402 0.00000 -0.00787402 -0.0157480 -0.00787402 0.00000 -0.00787402
1269.44 0.00000 0.0157480 0.00000 -0.0157480 -0.00787402 -0.0236220 0.00000 0.00000
1269.44 0.00000 -0.00787402 -0.00787402 0.00000 0.00000 -0.00787402 0.00000 -0.00787402
1277.11 -0.00787402 -0.00787402 -0.00787402 -0.00787402 0.00000 -0.00787402 0.00000 0.00000
1277.11 0.00000 -0.00787402 -0.0236220 0.00000 -0.00787402 -0.00787402 -0.00787402 0.00787402
1292.02 -0.00787402 -0.00787402 -0.00787402 -0.0236220 0.00000 -0.00787402 -0.00787402 -0.00787402
1292.02 -0.00787402 -0.0157480 0.00787402 0.00000 -0.00787402 -0.0157480 0.00000 -0.00787402
1299.52 -0.00787402 -0.00787402 0.00000 -0.0157480 -0.0157480 0.00787402 -0.00787402 -0.00787402
1299.52 -0.0157480 -0.00787402 0.00000 0.00000 0.00000 0.00000 -0.00787402 0.00000
1314.50 0.00000 -0.0157480 -0.00787402 0.00000 0.00000 0.0157480 -0.00787402 0.00000
1314.50 0.00000 0.00000 -0.0157480 -0.00787402 -0.00787402 -0.0157480 -0.00787402 0.00787402
1344.50 -0.00787402 0.00000 0.00000 0.00000 0.00000 0.0157480 -0.0236220 -0.0157480
1344.50 -0.0157480 -0.0157480 0.00000 -0.00787402 -0.0157480 0.00787402 -0.00787402 -0.00787402
1352.19 0.00787402 0.00000 -0.0157480 -0.00787402 0.00787402 -0.00787402 -0.0157480 0.00000
1352.19 -0.00787402 -0.00787402 -0.0157480 -0.00787402 -0.0236220 -0.00787402 0.00000 0.00000
1358.39 0.00000 -0.00787402 0.0157480 0.00000 -0.00787402 -0.00787402 -0.00787402 -0.00787402
1358.39 -0.00787402 0.00000 0.00787402 0.00000 -0.0157480 -0.00787402 -0.00787402 -0.00787402
1374.59 -0.0157480 0.00000 0.00000 0.00000 -0.00787402 -0.0236220 -0.0157480 -0.00787402
1374.59 0.00000 0.00000 -0.00787402 0.00000 -0.00787402 -0.00787402 0.00000 -0.00787402
1397.06 0.00000 -0.00787402 -0.0157480 -0.0236220 -0.00787402 -0.0157480 0.00787402 -0.00787402
1397.06 -0.00787402 0.00000 -0.00787402 -0.0236220 0.00000 0.00000 -0.0157480 0.00787402
1412.85 -0.00787402 -0.00787402 0.00000 0.00787402 -0.00787402 0.00787402 0.00000 -0.00787402
1412.85 -0.00787402 0.00787402 0.00787402 0.00000 0.00000 0.00787402 -0.00787402 -0.0157480
1427.05 -0.00787402 0.00000 -0.00787402 0.00000 -0.00787402 0.0157480 0.00000 0.00000
1427.05 -0.0157480 -0.0157480 -0.0157480 -0.00787402 -0.00787402 -0.0236220 0.00000 0.00787402
1441.78 0.00787402 -0.0157480 0.00000 -0.00787402 -0.00787402 -0.0157480 -0.0157480 0.00000
1441.78 -0.0157480 -0.0157480 -0.00787402 -0.00787402 -0.0236220 0.00000 -0.0157480 -0.0236220
1449.62 0.00000 0.00000 0.00787402 0.00000 -0.00787402 -0.0157480 -0.00787402 -0.0157480
1449.62 0.00000 -0.00787402 0.00000 -0.00787402 0.00000 0.00000 0.00000 -0.0157480
1464.49 -0.0157480 -0.0157480 -0.0157480 0.00787402 -0.0157480 -0.00787402 -0.0157480 0.00000
1464.49 -0.0157480 0.00787402 0.00787402 0.0157480 0.00000 -0.00787402 0.00000 -0.00787402
1478.89 -0.00787402 -0.00787402 0.00000 -0.00787402 -0.0157480 0.00000 0.00000 -0.00787402
1478.89 -0.00787402 -0.00787402 -0.0157480 -0.0157480 -0.00787402 -0.0157480 -0.00787402 0.00000
1487.11 -0.0157480 0.00000 -0.00787402 0.00000 -0.0157480 -0.00787402 -0.00787402 0.00000
1487.11 0.00787402 -0.00787402 -0.0157480 -0.0157480 0.00787402 0.00000 0.00000 -0.00787402
1501.98 -0.00787402 0.00000 0.00000 -0.0157480 -0.0157480 -0.00787402 -0.0157480 -0.0157480
1501.98 -0.00787402 -0.0157480 0.00000 0.00000 -0.00787402 -0.00787402 -0.00787402 0.00000
1517.01 -0.00787402 0.00000 -0.00787402 -0.00787402 -0.0157480 0.00000 0.00000 -0.0157480
1517.01 0.00000 -0.0157480 -0.0157480 0.00000 -0.0157480 0.00000 -0.00787402 -0.00787402
1532.01 -0.0157480 -0.00787402 -0.00787402 0.00000 0.00787402 0.00000 0.00000 -0.0157480
1532.01 0.00000 -0.0157480 0.00000 -0.00787402 -0.00787402 0.00787402 -0.0157480 0.00787402
1547.02 -0.00787402 -0.0157480 -0.00787402 0.00000 0.00000 -0.0236220 -0.00787402 0.00000
1547.02 -0.00787402 0.00787402 0.00000 0.00787402 -0.00787402 0.00000 0.00000 0.00000
1554.81 0.00000 -0.00787402 -0.0157480 -0.00787402 -0.00787402 0.00000 -0.00787402 0.0236220
1554.81 0.00000 0.00000 -0.0236220 -0.00787402 -0.0157480 0.00000 0.00000 -0.00787402
1569.58 0.00000 0.00000 0.00000 -0.0157480 0.00000 -0.0236220 0.00000 -0.00787402
1569.58 -0.00787402 -0.00787402 0.00787402 -0.00787402 -0.00787402 -0.00787402 0.00787402 -0.00787402
1584.51 0.0236220 0.00000 0.00000 -0.00787402 -0.0236220 -0.0236220 -0.00787402 0.00787402
1584.51 -0.0157480 -0.00787402 -0.00787402 0.00787402 0.00000 0.00000 -0.00787402 -0.00787402
1598.95 0.00000 0.00000 -0.00787402 0.00787402 -0.00787402 0.00000 -0.00787402 -0.00787402
1598.95 0.00000 0.00000 -0.00787402 -0.00787402 0.00787402 0.00000 -0.00787402 0.00787402
1607.05 0.00000 -0.00787402 -0.00787402 0.00000 0.00787402 -0.0236220 -0.0236220 -0.00787402
1607.05 -0.00787402 -0.0157480 -0.0157480 -0.00787402 0.00787402 -0.0236220 -0.0157480 0.00000
1636.97 -0.00787402 0.00000 -0.00787402 -0.00787402 0.00000 -0.00787402 0.00787402 0.00000
1636.97 -0.0157480 -0.0236220 -0.0157480 -0.00787402 -0.00787402 0.00000 0.00000 -0.00787402
1642.58 -0.0157480 -0.0157480 -0.0157480 0.00000 0.00787402 0.00000 0.00787402 -0.00787402
1644.60 0.00000 -0.00787402 -0.00787402 -0.0157480 -0.00787402 0.0157480 -0.00787402 0.00000
1675.00 -0.0157480 0.0157480 -0.00787402 -0.0157480 -0.00787402 -0.00787402 -0.00787402 -0.0157480
1675.00 -0.00787402 -0.00787402 0.00000 -0.0157480 0.00787402 0.00787402 -0.00787402 -0.00787402
1689.66 -0.0236220 -0.0157480 -0.00787402 0.00000 -0.0157480 -0.0157480 0.00787402 -0.00787402
1689.66 -0.00787402 -0.0157480 -0.00787402 0.00787402 0.00000 -0.00787402 -0.00787402 -0.00787402
1694.71 0.00787402 -0.0157480 -0.00787402 -0.00787402 0.00000 0.00787402 -0.0157480 -0.0157480
1694.71 0.00000 0.00000 -0.00787402 0.00000 0.00000 -0.0157480 0.00000 0.00000
1704.99 0.00000 -0.00787402 -0.00787402 -0.0157480 0.00000 0.0236220 0.00000 0.00000
1704.99 0.00787402 0.00000 0.00787402 0.00000 -0.00787402 -0.00787402 -0.0157480 -0.00787402
1718.88 -0.0157480 0.00000 -0.00787402 -0.00787402 -0.00787402 -0.0236220 0.00000 -0.00787402
1718.88 -0.0157480 0.00787402 -0.0157480 -0.00787402 0.00000 -0.00787402 0.00000 -0.00787402
1727.09 -0.00787402 0.00000 0.00787402 -0.00787402 0.00000 0.00787402 -0.00787402 0.00000
1727.09 0.00787402 -0.00787402 -0.0157480 0.00000 -0.0236220 -0.0157480 -0.0236220 0.00787402
1742.38 -0.00787402 -0.0236220 -0.00787402 -0.00787402 0.00787402 -0.0236220 0.00000 0.00000
1742.38 0.00000 -0.00787402 -0.00787402 0.00000 -0.0157480 0.00000 0.00000 -0.00787402
1764.47 0.00000 0.00000 -0.00787402 -0.0157480 -0.00787402 -0.0157480 0.00787402 0.00000
1764.47 -0.0236220 -0.00787402 -0.0236220 0.00787402 -0.0157480 0.00000 -0.00787402 -0.00787402
1772.45 -0.00787402 -0.00787402 -0.00787402 0.00000 -0.00787402 0.00787402 -0.0157480 -0.00787402
1772.45 -0.00787402 0.0157480 -0.00787402 0.00000 0.00000 -0.0236220 0.00787402 -0.00787402
1786.97 0.00000 -0.00787402 -0.0157480 0.00787402 0.00000 -0.0236220 -0.00787402 -0.00787402
1786.97 0.00000 -0.00787402 -0.00787402 0.00000 0.00000 0.00787402 0.00787402 -0.0157480
1794.50 0.00000 0.00787402 -0.00787402 -0.00787402 -0.0236220 0.0157480 0.00787402 -0.00787402
1794.50 -0.00787402 0.00000 0.00787402 -0.00787402 -0.00787402 -0.00787402 -0.00787402 0.00000
1809.90 0.00000 -0.00787402 -0.00787402 -0.00787402 -0.00787402 0.00000 -0.00787402 0.00787402
1809.90 -0.00787402 -0.00787402 0.00000 -0.00787402 0.00787402 -0.0236220 -0.00787402 -0.00787402
1845.94 0.00787402 0.00000 -0.0157480 0.00000 0.00787402 -0.00787402 -0.0157480 -0.00787402
1845.94 -0.00787402 -0.0157480 -0.0157480 0.00000 0.00000 0.00787402 0.00000 -0.0157480
1869.15 0.00000 -0.0157480 -0.00787402 0.00000 -0.00787402 -0.00787402 0.00787402 0.00787402
1869.15 -0.00787402 -0.00787402 -0.00787402 -0.0157480 -0.00787402 -0.0157480 -0.0157480 0.00000
1884.40 0.00000 -0.00787402 0.00000 -0.0157480 -0.0236220 -0.00787402 0.00000 0.00000
1884.40 0.00787402 -0.00787402 0.00000 -0.0157480 -0.0157480 0.00000 -0.0157480 -0.00787402
1899.57 -0.00787402 -0.0157480 -0.0157480 -0.00787402 -0.00787402 -0.00787402 0.00000 -0.00787402
1899.57 -0.0157480 0.00000 -0.00787402 -0.00787402 -0.00787402 0.00787402 0.00000 -0.00787402
1907.32 -0.0157480 0.00000 -0.00787402 -0.00787402 -0.00787402 -0.00787402 -0.0157480 -0.0157480
1907.32 0.00000 -0.00787402 0.00000 -0.00787402 -0.00787402 -0.00787402 -0.00787402 0.00787402
1914.50 -0.00787402 -0.00787402 -0.00787402 -0.00787402 0.00000 -0.00787402 -0.00787402 -0.00787402
1914.50 -0.00787402 -0.00787402 -0.00787402 -0.00787402 0.00000 0.00000 -0.00787402 0.00000
1929.52 -0.0157480 0.00000 -0.00787402 -0.0157480 0.00000 0.00000 0.00787402 -0.00787402
1929.52 -0.00787402 -0.0157480 -0.0157480 0.00787402 -0.00787402 0.00787402 0.00000 -0.0157480
1936.96 0.00000 -0.00787402 0.00787402 -0.00787402 0.00000 -0.0236220 -0.00787402 -0.00787402
1936.96 -0.0157480 -0.00787402 -0.00787402 -0.0236220 -0.00787402 0.00787402 0.00000 0.00000
1952.84 -0.00787402 0.00000 0.00000 -0.00787402 -0.00787402 0.00000 -0.00787402 -0.00787402
1952.84 -0.00787402 0.00000 -0.00787402 0.00787402 -0.00787402 0.00787402 -0.0157480 -0.0157480
1966.88 -0.00787402 -0.00787402 -0.00787402 -0.00787402 -0.00787402 -0.0157480 -0.0157480 0.00000
1966.88 0.00000 0.00000 0.00787402 -0.00787402 0.00000 -0.00787402 0.00787402 0.00000
1974.56 -0.00787402 -0.00787402 -0.00787402 -0.00787402 -0.00787402 -0.0157480 0.00000 0.00000
1974.56 0.00000 0.00000 -0.0157480 0.00000 0.00000 -0.0157480 -0.0157480 -0.00787402
1989.75 0.00000 0.00000 0.00000 -0.00787402 -0.0157480 0.00787402 -0.0157480 0.00787402
1989.75 0.00000 0.00000 -0.00787402 -0.0157480 0.00000 0.00000 -0.0157480 -0.00787402
1996.87 0.00000 -0.0236220 -0.00787402 -0.00787402 0.00000 -0.00787402 -0.00787402 -0.00787402
1996.87 0.00000 0.00000 0.00787402 -0.00787402 -0.0157480 -0.00787402 0.00000 0.00000
2004.40 0.00000 -0.00787402 -0.00787402 0.00787402 0.00000 0.00000 0.00000 -0.00787402
2004.40 -0.0157480 -0.00787402 -0.00787402 -0.00787402 0.00000 0.00787402 0.00000 -0.00787402
2027.08 -0.0157480 0.00000 -0.00787402 0.00000 0.00000 -0.0236220 0.00000 -0.0157480
2027.08 -0.00787402 0.00000 0.00000 -0.0157480 -0.0236220 0.00000 -0.00787402 0.00000
2040.20 -0.00787402 -0.0157480 0.00000 -0.00787402 -0.00787402 -0.00787402 -0.0157480 -0.00787402
2042.77 0.00787402 0.00000 -0.0157480 0.00000 -0.0157480 -0.00787402 -0.00787402 0.00000
2057.34 -0.0157480 -0.0157480 -0.00787402 -0.00787402 -0.00787402 -0.0157480 -0.0157480 -0.00787402
2057.34 -0.00787402 -0.00787402 -0.00787402 -0.0157480 0.00000 0.00000 -0.0157480 -0.0236220
2064.52 0.00000 0.00787402 -0.00787402 0.00000 -0.00787402 0.0157480 0.00000 0.00000
2064.52 0.00787402 0.00000 -0.00787402 0.00787402 -0.00787402 -0.00787402 0.00000 0.00000
2078.15 0.00000 -0.00787402 0.00000 -0.00787402 -0.00787402 -0.00787402 -0.0236220 0.00000
2078.15 -0.0157480 0.00000 -0.0157480 -0.00787402 -0.00787402 0.00000 0.00000 -0.0157480
2092.90 0.00000 -0.00787402 0.00000 0.00000 0.00000 0.00787402 0.00000 -0.00787402
2092.90 -0.00787402 -0.0157480 0.00000 0.00787402 0.00000 -0.00787402 -0.00787402 -0.0157480
2101.35 0.00000 -0.0157480 -0.0236220 0.00000 -0.00787402 -0.00787402 -0.0157480 -0.00787402
2101.35 0.00000 -0.0236220 -0.00787402 0.0157480 0.00787402 0.00787402 -0.0157480 -0.00787402
2108.80 -0.00787402 0.00000 -0.00787402 -0.00787402 -0.00787402 -0.0157480 0.00000 -0.00787402
2108.80 -0.00787402 0.00000 0.00787402 -0.00787402 -0.0236220 -0.0236220 -0.00787402 0.00000
2125.07 0.00000 -0.00787402 -0.0157480 0.00000 0.00000 0.00787402 0.00000 -0.0157480
2125.07 0.00000 -0.00787402 0.00000 0.00787402 -0.00787402 -0.00787402 -0.0157480 0.00000
2139.98 0.00000 -0.00787402 -0.00787402 -0.00787402 0.00787402 -0.00787402 0.00787402 -0.00787402
2139.98 -0.00787402 -0.00787402 0.00000 0.00000 0.00787402 -0.00787402 0.00000 0.00787402
2147.03 0.00787402 0.00000 0.0157480 -0.00787402 -0.00787402 -0.00787402 -0.0157480 -0.00787402
2147.03 -0.00787402 0.00000 0.00000 -0.0236220 0.00787402 0.00000 0.00000 0.00000
2161.96 -0.0236220 -0.00787402 -0.0236220 0.00787402 -0.00787402 0.00787402 0.00000 -0.00787402
2161.96 0.00000 0.00787402 0.00000 -0.00787402 -0.00787402 -0.0157480 -0.00787402 0.00000
2169.47 -0.00787402 0.00000 -0.0157480 -0.00787402 -0.00787402 -0.0157480 0.00000 -0.00787402
2169.47 0.00000 -0.00787402 -0.00787402 0.00000 -0.00787402 0.00787402 -0.00787402 -0.00787402
2192.47 0.00000 -0.0157480 -0.00787402 -0.00787402 -0.00787402 -0.00787402 0.00000 0.00787402
2192.47 0.00000 -0.00787402 -0.00787402 -0.00787402 -0.00787402 -0.00787402 0.00000 0.00000
2206.81 -0.00787402 -0.0157480 -0.0157480 -0.00787402 -0.0157480 -0.0157480 0.00000 0.00000
2206.81 -0.00787402 0.00000 -0.00787402 0.00000 -0.00787402 -0.00787402 0.00000 -0.00787402
2214.48 -0.00787402 0.00000 -0.00787402 0.00787402 -0.00787402 -0.00787402 0.00000 0.00000
2214.48 -0.00787402 -0.00787402 -0.00787402 -0.0236220 -0.0236220 0.00787402 -0.00787402 0.00000
2229.53 0.00000 0.00000 0.00787402 -0.00787402 0.00000 -0.00787402 -0.0157480 0.00787402
2229.53 -0.00787402 -0.00787402 -0.00787402 0.00000 -0.00787402 -0.00787402 -0.0157480 0.00000
2236.87 -0.00787402 -0.00787402 -0.00787402 0.00000 0.00787402 0.00000 -0.00787402 -0.00787402
2236.87 -0.0157480 0.00000 -0.00787402 0.00000 0.00000 -0.00787402 0.00787402 -0.0157480
2244.55 -0.00787402 0.00787402 -0.00787402 -0.0157480 -0.00787402 0.00000 -0.0157480 -0.00787402
2244.55 0.00000 -0.00787402 0.00787402 0.00000 0.00787402 0.00000 -0.0157480 0.00787402
2259.64 0.00787402 -0.0157480 0.00787402 -0.00787402 0.00787402 -0.00787402 -0.00787402 -0.0236220
2259.64 -0.0157480 -0.0157480 -0.00787402 0.00000 -0.00787402 0.00000 -0.0157480 -0.0157480
2267.06 0.00000 -0.00787402 -0.00787402 0.00000 0.00787402 0.00787402 0.00000 -0.0157480
2267.06 -0.0157480 -0.00787402 -0.0157480 -0.00787402 -0.00787402 -0.0236220 -0.0157480 0.00000
2281.93 -0.00787402 0.00000 0.00000 0.00000 -0.00787402 0.00000 -0.00787402 0.00787402
2281.93 0.00000 -0.00787402 0.00000 0.00000 -0.00787402 0.00787402 -0.00787402 0.00787402
2296.97 -0.00787402 0.00000 -0.0157480 -0.00787402 -0.00787402 0.0157480 0.00000 -0.00787402
2296.97 -0.00787402 -0.00787402 0.00000 -0.00787402 -0.00787402 0.00000 -0.00787402 -0.0157480
2317.04 -0.0157480 -0.00787402 0.00000 -0.00787402 -0.0157480 0.00000 0.00000 -0.00787402
2317.04 0.00000 -0.00787402 -0.00787402 0.00000 0.00000 0.00000 0.00000 -0.00787402
2333.18 0.00000 -0.00787402 -0.00787402 -0.00787402 -0.0314961 -0.00787402 -0.00787402 -0.00787402
2333.18 0.00787402 -0.00787402 0.00000 -0.00787402 -0.0157480 0.00000 0.00000 -0.0157480
2342.47 0.00000 -0.00787402 0.00787402 0.00000 -0.0157480 -0.0314961 0.00000 -0.00787402
2342.47 -0.00787402 -0.0157480 -0.0157480 0.00000 0.00000 0.00787402 0.00787402 0.00787402
2356.75 -0.0157480 -0.0157480 -0.0157480 -0.00787402 0.0157480 -0.0157480 0.00000 -0.0157480
2356.75 0.00000 -0.00787402 -0.00787402 0.00000 -0.00787402 0.00787402 -0.0157480 -0.00787402
2372.19 -0.0157480 0.00000 -0.0157480 -0.00787402 -0.0157480 0.00787402 -0.00787402 -0.00787402
2372.19 -0.00787402 -0.0236220 0.00000 0.00000 0.00000 -0.00787402 0.00000 -0.0236220
2386.71 0.00000 -0.0157480 0.00000 -0.00787402 -0.00787402 0.00000 -0.00787402 -0.0157480
2386.71 -0.00787402 0.00000 -0.00787402 0.00000 -0.0236220 -0.00787402 -0.00787402 -0.00787402
2409.97 -0.0157480 -0.00787402 -0.00787402 0.00000 0.00000 -0.0157480 -0.0157480 -0.00787402
2409.97 -0.00787402 -0.00787402 -0.0157480 0.00000 -0.00787402 0.00787402 0.00000 0.00000
2416.96 -0.00787402 0.00000 0.00000 -0.0157480 0.00000 0.00787402 -0.00787402 -0.00787402
2416.96 -0.00787402 0.00787402 0.00000 0.00000 -0.00787402 -0.0157480 0.00000 -0.0157480
2440.23 0.00787402 -0.00787402 -0.00787402 0.00000 -0.0157480 0.00000 -0.00787402 0.00000
2440.23 -0.0157480 -0.0157480 0.00000 -0.00787402 -0.00787402 0.00787402 -0.00787402 0.00000
2454.47 0.00000 -0.0157480 -0.00787402 0.00000 -0.0157480 0.00000 0.00000 -0.00787402
2454.47 -0.00787402 0.00000 -0.00787402 -0.00787402 -0.0157480 0.0236220 -0.0157480 -0.0157480
2461.91 0.00787402 -0.00787402 0.00787402 0.00000 0.00000 -0.00787402 0.00000 -0.00787402
2461.91 0.00787402 0.00000 -0.00787402 -0.0236220 0.00000 -0.00787402 0.00000 0.00000
2477.34 0.00000 -0.00787402 0.00000 -0.0157480 -0.0157480 -0.00787402 -0.00787402 0.00000
2477.34 0.00000 0.00000 0.00000 0.00000 0.00000 0.00000 -0.00787402 -0.00787402
2484.48 0.00000 0.00000 -0.0157480 0.00787402 -0.00787402 0.00000 -0.00787402 0.00000
2484.48 0.00000 -0.0157480 -0.00787402 -0.00787402 -0.0157480 -0.0236220 0.00000 -0.0157480
2499.79 -0.0236220 0.00787402 0.00000 -0.0157480 0.00000 -0.0157480 -0.0157480 -0.00787402
2499.79 -0.0157480 -0.0157480 -0.0157480 -0.00787402 0.00000 -0.00787402 -0.0157480 -0.00787402
2507.27 -0.00787402 -0.00787402 -0.00787402 -0.00787402 0.00000 -0.00787402 -0.00787402 0.00000
2507.27 -0.0157480 0.00000 -0.0236220 -0.00787402 -0.0157480 0.00000 -0.0157480 -0.00787402
2522.40 -0.00787402 -0.0157480 -0.00787402 -0.00787402 -0.0236220 -0.00787402 0.00787402 0.00000
2522.40 -0.00787402 0.00000 0.00787402 -0.00787402 0.00787402 -0.0157480 0.00000 -0.0157480
2529.45 -0.00787402 -0.00787402 -0.0157480 -0.00787402 -0.0157480 -0.00787402 0.00787402 0.00000
2529.45 -0.00787402 0.00000 0.00000 0.0157480 0.00787402 -0.00787402 -0.00787402 0.00000
2542.56 0.00000 -0.0157480 0.00000 0.00000 -0.00787402 -0.00787402 0.00000 -0.00787402
2544.58 -0.0236220 -0.00787402 -0.00787402 0.00000 0.00000 -0.00787402 0.00787402 -0.0157480
2557.12 -0.00787402 -0.00787402 -0.0157480 -0.0157480 -0.00787402 -0.0157480 -0.0157480 0.00000
2557.12 0.00000 -0.00787402 0.00000 -0.00787402 -0.00787402 -0.0157480 0.00000 0.0157480
2567.01 -0.0236220 0.00000 -0.00787402 -0.00787402 0.00787402 0.00787402 -0.0157480 -0.0157480
2567.01 0.00787402 -0.00787402 0.00000 -0.0157480 -0.00787402 -0.00787402 0.00000 0.00787402
2581.95 0.00000 0.00000 0.00000 -0.0157480 -0.0157480 -0.0157480 -0.00787402 -0.00787402
2581.95 0.00000 -0.00787402 0.00787402 -0.00787402 0.00000 0.00787402 0.00000 -0.0236220
2589.08 -0.0157480 0.00000 -0.00787402 0.00000 0.00000 -0.0236220 -0.00787402 0.00000
2589.08 -0.00787402 -0.00787402 -0.0157480 -0.0157480 0.00000 0.00000 0.00000 -0.00787402
2604.48 0.00000 -0.00787402 -0.00787402 -0.0157480 -0.00787402 0.00000 -0.00787402 -0.00787402
2604.48 0.00000 0.00000 0.00000 -0.00787402 -0.0157480 -0.00787402 0.00000 0.00000
2618.96 0.00000 -0.00787402 -0.00787402 0.00000 0.00787402 0.0157480 -0.00787402 -0.0157480
2618.96 -0.0157480 0.00000 -0.0157480 0.00000 -0.00787402 0.00787402 -0.00787402 -0.00787402
2627.05 -0.0157480 0.00000 -0.00787402 0.00000 -0.00787402 -0.0236220 -0.00787402 -0.0157480
2627.05 -0.00787402 0.00000 -0.00787402 0.00000 -0.0157480 0.00787402 -0.0157480 -0.0157480
2642.36 0.00787402 0.00787402 -0.0157480 -0.0157480 -0.00787402 -0.00787402 0.00787402 0.00000
2642.36 0.00000 -0.0157480 -0.00787402 -0.00787402 -0.0157480 0.00000 -0.00787402 0.00000
2649.47 0.00000 -0.00787402 0.00000 -0.00787402 -0.0236220 -0.00787402 -0.0157480 0.00000
2649.47 -0.0157480 0.00000 -0.0157480 0.00787402 0.0157480 0.0157480 -0.00787402 -0.00787402
2664.45 -0.00787402 -0.00787402 0.00787402 -0.00787402 -0.00787402 -0.00787402 0.00000 0.00000
2664.45 0.00000 0.00000 0.00787402 -0.00787402 -0.00787402 -0.00787402 -0.00787402 -0.0157480
2686.40 -0.0236220 0.00000 0.00000 -0.00787402 -0.00787402 -0.00787402 -0.00787402 -0.00787402
2686.40 -0.0157480 0.00000 0.00000 -0.00787402 -0.0157480 -0.00787402 0.00000 0.00000
2694.50 0.00000 -0.00787402 -0.0157480 -0.0236220 0.00000 -0.00787402 0.00000 -0.00787402
2694.50 0.00000 -0.00787402 -0.0157480 -0.00787402 0.00000 -0.0393701 0.00000 0.00787402
2709.99 -0.00787402 -0.0236220 0.00000 0.00000 -0.00787402 -0.00787402 -0.0157480 -0.00787402
2709.99 -0.00787402 -0.00787402 -0.0157480 -0.00787402 -0.00787402 0.00000 -0.00787402 -0.00787402
2716.54 -0.00787402 -0.00787402 -0.00787402 0.00787402 0.00787402 0.0157480 0.00787402 -0.00787402
2716.54 -0.00787402 0.00000 -0.00787402 -0.0157480 -0.0157480 0.0157480 -0.00787402 0.00000
2724.98 0.00000 0.00000 -0.00787402 0.00787402 0.00000 0.0157480 -0.00787402 -0.00787402
2724.98 0.00000 -0.00787402 -0.0157480 -0.00787402 -0.00787402 0.00000 -0.0157480 -0.0157480
2739.99 0.00000 0.00000 0.00000 0.00787402 -0.00787402 -0.00787402 -0.0157480 0.00000
2739.99 -0.0157480 -0.00787402 -0.00787402 -0.00787402 0.00000 0.00000 0.00000 -0.00787402
2746.98 -0.0157480 0.00000 -0.0157480 -0.00787402 -0.0236220 0.00000 0.00000 -0.00787402
2746.98 -0.00787402 -0.0157480 -0.00787402 0.00000 0.00000 -0.0157480 0.00787402 0.00000
2761.98 0.00000 0.00000 -0.00787402 -0.00787402 -0.00787402 0.00787402 0.00787402 0.00787402
2761.98 0.00000 0.00000 0.00787402 -0.0157480 -0.00787402 -0.00787402 -0.00787402 0.00000
2769.46 -0.00787402 -0.00787402 -0.00787402 -0.00787402 0.00000 -0.0236220 -0.0157480 0.00000
2769.46 -0.00787402 -0.00787402 0.00000 -0.00787402 -0.0157480 -0.00787402 -0.0157480 0.00000
2784.17 0.00787402 -0.00787402 -0.00787402 -0.0236220 -0.00787402 -0.00787402 0.00000 0.00000
2784.17 -0.00787402 0.00000 0.00787402 0.00000 -0.00787402 0.00787402 0.00787402 -0.00787402
2796.97 0.00000 0.00000 -0.0157480 0.00000 -0.00787402 0.00000 -0.00787402 -0.0157480
2799.52 -0.00787402 -0.00787402 0.00000 0.00000 0.00000 0.00000 0.00000 -0.00787402
2806.96 -0.00787402 -0.0157480 -0.00787402 -0.00787402 -0.00787402 0.00000 -0.0157480 -0.00787402
2806.96 0.00000 -0.0236220 -0.0157480 -0.00787402 0.00787402 -0.00787402 0.00000 0.00000
2821.11 -0.00787402 -0.00787402 0.00787402 -0.0157480 -0.0157480 0.00787402 -0.00787402 -0.00787402
2821.11 -0.0157480 0.00000 0.00000 0.00000 -0.00787402 -0.00787402 0.00000 0.00000
2827.76 -0.00787402 0.00000 -0.00787402 0.00000 0.00000 -0.00787402 0.00000 0.00787402
2827.76 -0.0236220 0.00787402 0.00787402 -0.00787402 -0.00787402 0.00000 -0.00787402 0.00000
2844.36 0.00787402 -0.00787402 -0.0157480 0.00000 -0.00787402 -0.0236220 -0.00787402 -0.0157480
2844.36 -0.00787402 -0.0157480 -0.00787402 0.00000 0.00000 -0.00787402 -0.00787402 0.00000
2859.45 0.00000 0.00000 -0.00787402 -0.00787402 -0.00787402 -0.00787402 -0.00787402 0.00000
2859.45 -0.00787402 -0.00787402 -0.0157480 -0.00787402 -0.00787402 -0.00787402 -0.00787402 -0.00787402
2866.90 -0.0157480 -0.00787402 0.00000 -0.00787402 -0.00787402 0.00000 -0.00787402 0.00000
2866.90 0.00000 -0.0157480 -0.00787402 0.00000 -0.00787402 -0.00787402 0.00000 -0.0157480
2881.97 -0.00787402 0.00787402 0.00000 -0.00787402 0.00000 -0.0157480 -0.00787402 -0.0157480
2881.97 -0.0157480 -0.0157480 0.00000 0.00000 0.00000 0.00000 -0.0157480 -0.00787402
2896.95 -0.0157480 0.00787402 -0.00787402 -0.00787402 -0.0157480 0.00000 0.00000 -0.00787402
2896.95 -0.00787402 -0.00787402 -0.0236220 -0.0157480 -0.0157480 -0.0157480 -0.00787402 0.00787402
2911.92 -0.00787402 -0.00787402 -0.00787402 -0.00787402 -0.0157480 -0.0157480 -0.00787402 -0.00787402
2911.92 -0.00787402 -0.00787402 -0.00787402 -0.00787402 0.00000 -0.00787402 0.00000 -0.0157480
2919.45 -0.0157480 -0.00787402 -0.00787402 0.00000 -0.0157480 0.00000 0.00000 0.00000
2919.45 -0.00787402 0.00000 -0.00787402 -0.00787402 -0.00787402 0.00787402 -0.0157480 -0.00787402
2941.98 0.00000 -0.00787402 -0.00787402 -0.0157480 -0.00787402 0.00000 0.00000 0.00000
2941.98 -0.00787402 -0.00787402 0.00000 -0.00787402 0.00000 0.0236220 -0.00787402 -0.0236220
2954.67 0.00000 -0.0157480 0.00000 -0.00787402 -0.00787402 -0.0236220 0.00000 0.00000
2954.67 0.00000 0.00787402 -0.00787402 0.00000 -0.00787402 -0.00787402 0.00000 -0.0236220
2971.25 -0.00787402 -0.00787402 -0.0157480 -0.00787402 -0.00787402 0.00787402 0.00000 -0.00787402
2971.25 -0.0157480 0.00000 -0.00787402 -0.00787402 -0.00787402 0.00000 0.00787402 0.00000
2978.75 0.00000 -0.00787402 -0.00787402 -0.00787402 0.00000 0.00787402 -0.0157480 -0.00787402
2978.75 -0.00787402 0.00000 -0.00787402 -0.0157480 -0.00787402 -0.0236220 -0.0157480 -0.00787402
2994.74 -0.0157480 -0.00787402 -0.0157480 0.00787402 -0.00787402 0.00000 0.00000 -0.0157480
2994.74 0.00000 0.00000 -0.0157480 -0.00787402 -0.0157480 0.00000 0.00000 0.00000
3016.49 -0.00787402 0.00000 0.00000 0.00000 0.00787402 -0.0157480 -0.00787402 -0.00787402
3016.49 -0.0157480 -0.0157480 0.00000 -0.00787402 -0.0157480 -0.0157480 0.00000 0.00000
3039.92 0.00000 -0.0157480 -0.00787402 0.00000 0.00787402 -0.00787402 0.00787402 0.00000
3039.92 0.00000 -0.00787402 -0.00787402 0.00787402 -0.0236220 -0.00787402 0.00000 -0.0236220
3060.00 0.00000 -0.00787402 -0.0157480 -0.0157480 -0.00787402 0.00000 -0.00787402 0.00000
3060.00 0.00000 -0.0157480 0.00000 0.00787402 0.00000 0.00787402 -0.0236220 0.0157480
3076.60 -0.00787402 0.00787402 0.00000 0.00000 0.00000 -0.00787402 0.00787402 0.00000
3076.60 -0.00787402 -0.00787402 0.00000 0.00000 0.00000 -0.00787402 0.00000 -0.00787402
3092.40 0.00000 0.00787402 -0.00787402 0.00000 0.00000 -0.00787402 -0.00787402 0.00000
3092.40 -0.0157480 0.00787402 -0.00787402 -0.00787402 -0.0157480 0.00000 -0.00787402 -0.0157480
3099.47 -0.00787402 -0.00787402 0.00000 0.00000 -0.0157480 0.00787402 -0.0157480 -0.0236220
3099.47 0.00000 -0.00787402 -0.00787402 -0.00787402 0.00000 -0.0157480 -0.0157480 -0.00787402
3106.74 -0.00787402 -0.0157480 0.00000 -0.00787402 -0.00787402 -0.0236220 0.00000 -0.0157480
3106.74 0.00000 -0.00787402 0.00000 -0.00787402 0.00000 -0.0157480 -0.00787402 -0.0157480
3121.96 -0.00787402 -0.00787402 0.00000 0.00000 -0.0157480 -0.00787402 -0.00787402 0.00000
3121.96 0.00787402 0.00787402 -0.0236220 0.00000 0.00000 -0.00787402 -0.00787402 -0.00787402
3127.85 0.00000 -0.00787402 -0.00787402 -0.0157480 0.00000 0.00000 -0.0157480 -0.00787402
3127.85 -0.00787402 -0.00787402 -0.00787402 -0.0157480 -0.00787402 0.00787402 0.00000 -0.00787402
3151.93 0.00000 -0.00787402 -0.0157480 -0.0157480 0.00000 -0.0157480 -0.0157480 0.00000
3151.93 0.00000 -0.00787402 0.00000 -0.0157480 -0.00787402 -0.00787402 0.00000 -0.00787402
3166.76 0.00000 -0.00787402 -0.00787402 -0.00787402 -0.0157480 -0.00787402 0.00787402 -0.00787402
3166.76 -0.0236220 -0.00787402 -0.0157480 -0.0157480 0.00787402 -0.00787402 0.00000 -0.00787402
3182.01 0.00000 0.00000 -0.00787402 -0.0157480 -0.0157480 0.00000 -0.0157480 -0.0157480
3182.01 -0.00787402 -0.00787402 -0.00787402 0.00000 -0.0236220 0.00000 -0.0157480 0.00000
3194.82 0.00000 -0.00787402 -0.0236220 -0.00787402 -0.00787402 -0.00787402 -0.00787402 0.00787402
3194.82 -0.00787402 -0.00787402 0.00787402 -0.00787402 -0.00787402 -0.00787402 0.00000 0.00000
3204.18 -0.00787402 0.00000 0.00000 0.00000 0.00787402 0.00000 -0.0236220 -0.0157480
3204.18 -0.00787402 0.00000 -0.0157480 0.00000 -0.0157480 -0.00787402 -0.0157480 -0.0236220
3212.04 -0.0157480 -0.0157480 -0.00787402 0.00787402 -0.00787402 -0.0393701 0.00000 -0.00787402
3212.04 0.00000 -0.00787402 -0.00787402 -0.0157480 0.00000 0.00787402 -0.00787402 0.00000
3227.16 0.00000 -0.00787402 0.00787402 -0.0236220 0.00787402 -0.0157480 0.00000 0.00000
3227.16 0.00787402 0.00787402 0.00000 0.00787402 0.00000 -0.0157480 0.00000 -0.00787402
3241.74 0.00000 -0.00787402 0.00000 0.00787402 0.00000 -0.0236220 0.00787402 0.00000
3241.74 -0.00787402 0.00787402 0.00000 0.00000 0.00000 0.00000 -0.00787402 -0.00787402
3257.57 -0.0157480 -0.00787402 -0.00787402 0.00787402 -0.0157480 0.00787402 -0.00787402 -0.00787402
3257.57 -0.00787402 -0.0157480 -0.00787402 -0.00787402 -0.00787402 0.00000 0.00000 -0.00787402
3272.13 -0.00787402 -0.00787402 -0.00787402 0.00000 0.00000 0.00000 -0.0157480 0.00000
3272.13 -0.00787402 -0.00787402 0.00000 -0.0236220 0.00000 -0.0157480 -0.00787402 -0.0236220
3279.45 0.00000 0.00787402 -0.00787402 -0.0157480 -0.00787402 0.00787402 -0.00787402 -0.00787402
3279.45 0.00787402 -0.00787402 0.00000 -0.00787402 -0.00787402 -0.00787402 -0.00787402 -0.00787402
3294.62 0.0157480 -0.0157480 -0.00787402 0.00787402 0.00000 -0.0157480 0.00000 0.00000
3294.62 -0.00787402 0.00000 -0.0157480 0.00000 0.00000 0.00000 0.00000 -0.00787402
3308.95 0.00000 -0.00787402 0.00787402 0.00000 -0.0157480 -0.0314961 0.0157480 0.00787402
3308.95 0.00000 0.00787402 0.00000 0.00787402 -0.00787402 -0.0157480 0.00000 0.00000
3324.79 0.0157480 0.00000 -0.0236220 -0.00787402 0.00000 0.00000 -0.00787402 -0.00787402
3324.79 -0.0157480 -0.00787402 0.00000 -0.0157480 -0.0157480 0.00000 -0.00787402 -0.00787402
3339.93 -0.00787402 -0.00787402 -0.0157480 -0.00787402 -0.00787402 0.00000 0.00000 -0.00787402
3339.93 -0.00787402 0.00000 -0.00787402 -0.00787402 0.00000 0.00000 0.00000 -0.00787402
3354.54 -0.0157480 0.00000 -0.00787402 -0.00787402 0.00000 0.00787402 -0.0157480 -0.00787402
3354.54 -0.00787402 -0.0236220 0.00000 -0.00787402 0.00000 0.00000 -0.00787402 0.00000
3369.51 -0.00787402 0.00787402 -0.00787402 -0.0157480 -0.00787402 -0.00787402 -0.00787402 -0.00787402
3369.51 -0.00787402 -0.00787402 -0.00787402 0.00000 0.00000 -0.0157480 0.00000 0.00000
3377.03 -0.00787402 0.00000 -0.00787402 0.0157480 0.00000 0.0157480 -0.00787402 -0.0157480
3377.03 -0.00787402 0.00000 0.00000 -0.00787402 -0.0157480 0.00000 0.00000 -0.0157480
3392.27 -0.00787402 0.00000 -0.0157480 -0.00787402 0.00000 -0.00787402 0.00000 -0.0157480
3392.27 -0.00787402 -0.0236220 -0.00787402 0.00000 -0.00787402 0.00787402 -0.00787402 -0.0157480
3408.92 -0.0157480 0.00000 -0.00787402 -0.0236220 -0.00787402 0.00000 -0.00787402 0.00000
3408.92 0.00000 0.00000 -0.0157480 0.00000 -0.00787402 -0.0157480 0.00000 -0.00787402
3422.23 -0.00787402 -0.0157480 0.00000 -0.00787402 -0.0157480 -0.00787402 -0.00787402 0.00000
3422.23 0.00000 -0.00787402 -0.0157480 0.00000 -0.00787402 0.00000 -0.0157480 -0.0157480
3429.45 -0.00787402 -0.00787402 0.00000 -0.00787402 -0.00787402 -0.0236220 -0.0157480 0.00000
3429.45 0.00000 0.00000 -0.0157480 -0.00787402 -0.00787402 0.00787402 -0.00787402 0.00000
3444.51 -0.0157480 -0.00787402 0.00000 -0.00787402 -0.00787402 -0.0157480 0.00000 -0.00787402
3444.51 0.00000 -0.00787402 -0.0157480 -0.00787402 -0.00787402 -0.00787402 -0.00787402 -0.0157480
3451.96 -0.00787402 -0.00787402 -0.00787402 -0.00787402 0.00000 0.00787402 0.00000 0.00000
3451.96 -0.0236220 0.00000 0.00787402 -0.0157480 0.00000 0.0157480 -0.00787402 -0.00787402
3466.87 0.00000 -0.00787402 -0.00787402 -0.00787402 0.00000 0.00000 0.00000 -0.00787402
3466.87 -0.00787402 -0.0157480 0.00000 -0.00787402 -0.00787402 -0.00787402 -0.0157480 -0.00787402
3481.76 -0.0157480 0.00787402 -0.00787402 -0.00787402 -0.0157480 -0.00787402 0.00787402 -0.0157480
3481.76 0.00787402 -0.00787402 -0.00787402 -0.00787402 -0.00787402 0.00000 0.00787402 -0.0157480
3489.84 0.00000 0.00787402 0.00787402 -0.00787402 0.00000 0.00000 -0.00787402 -0.0157480
3489.84 0.00000 0.00787402 -0.00787402 -0.00787402 -0.00787402 -0.0157480 0.00000 -0.00787402
3510.28 -0.00787402 0.00000 -0.0157480 -0.00787402 0.00000 -0.0157480 -0.00787402 0.00000
3510.28 -0.00787402 -0.0157480 0.00000 0.00000 -0.00787402 0.00787402 0.00787402 0.00787402
3519.42 0.00787402 -0.00787402 0.00000 0.00000 -0.0157480 -0.00787402 0.0157480 0.0157480
3519.42 0.00000 -0.00787402 -0.0157480 -0.00787402 0.00000 0.00000 -0.00787402 0.00000
3534.14 -0.00787402 -0.00787402 0.00000 0.00000 0.00000 -0.0157480 -0.00787402 -0.0157480
3534.14 0.00000 -0.00787402 -0.00787402 -0.00787402 0.00000 0.00787402 0.00787402 0.00787402
3549.43 -0.00787402 -0.00787402 0.00787402 0.00000 -0.00787402 0.00000 0.00000 -0.0157480
3549.43 -0.0236220 -0.00787402 -0.00787402 -0.0157480 0.00000 -0.0157480 -0.0157480 0.00000
3557.00 0.00000 -0.0157480 -0.00787402 -0.0157480 -0.0157480 -0.0157480 -0.0157480 0.00000
3557.00 -0.00787402 0.00000 -0.0157480 -0.00787402 0.00000 -0.00787402 0.00000 -0.0157480
3571.97 0.00787402 -0.00787402 -0.0157480 -0.00787402 -0.00787402 -0.00787402 -0.00787402 -0.0236220
3571.97 -0.0157480 -0.00787402 -0.0157480 0.00787402 0.00000 -0.0157480 -0.00787402 0.00000
3586.88 -0.0236220 -0.00787402 -0.0157480 0.00787402 0.00787402 0.00787402 0.00000 0.00000
3586.88 -0.0157480 0.00787402 -0.00787402 -0.0157480 0.00000 0.00000 -0.00787402 -0.00787402
3601.79 0.00000 -0.0157480 0.00000 -0.00787402 -0.00787402 -0.00787402 -0.00787402 0.00000
3601.79 0.00000 -0.0157480 0.00000 -0.0157480 -0.00787402 -0.0157480 0.00787402 -0.0157480
3616.91 -0.00787402 -0.0157480 -0.00787402 -0.00787402 -0.00787402 -0.00787402 0.00000 0.00000
3616.91 -0.0157480 -0.0236220 0.00000 -0.0157480 -0.0157480 -0.0314961 -0.00787402 -0.00787402
3631.98 -0.0157480 -0.00787402 -0.00787402 -0.00787402 0.00000 0.00000 -0.0157480 -0.00787402
3631.98 0.00000 0.00000 0.00000 -0.00787402 -0.00787402 -0.00787402 -0.0157480 0.00000
3640.09 -0.00787402 -0.0157480 -0.00787402 -0.00787402 -0.00787402 -0.0236220 -0.00787402 0.00000
3640.09 0.00000 -0.00787402 -0.00787402 0.00787402 0.00000 -0.00787402 -0.00787402 0.00000
3654.34 0.00787402 -0.0157480 -0.00787402 0.00000 -0.00787402 -0.00787402 -0.00787402 -0.00787402
3654.34 -0.00787402 -0.00787402 0.00000 -0.0157480 -0.0157480 -0.00787402 -0.0157480 0.00000
3670.71 0.00000 0.00000 0.00787402 -0.00787402 0.00787402 0.00787402 -0.00787402 0.00787402
3670.71 -0.00787402 -0.00787402 0.00000 0.00000 0.00787402 -0.0236220 0.00000 -0.0157480
3684.43 -0.00787402 0.00000 -0.00787402 -0.00787402 -0.00787402 0.00000 0.00000 0.00787402
3684.43 -0.00787402 -0.00787402 -0.0157480 0.00787402 -0.00787402 0.00000 0.00787402 -0.0157480
3692.02 -0.0236220 -0.0157480 -0.00787402 -0.00787402 0.00000 -0.0157480 -0.0236220 -0.00787402
3692.02 0.00000 -0.0157480 -0.0157480 0.00000 0.00000 0.00000 -0.00787402 0.00787402
3707.45 0.00000 0.00787402 -0.00787402 -0.0157480 -0.0157480 -0.0157480 -0.0157480 -0.0236220
3707.45 0.00000 -0.0157480 0.00000 -0.00787402 0.0157480 -0.0157480 -0.00787402 0.00000
3713.61 -0.0157480 0.00000 -0.00787402 -0.0157480 -0.0236220 0.00000 -0.00787402 -0.0157480
3713.61 0.00000 0.00787402 0.00000 0.00787402 -0.00787402 -0.00787402 -0.00787402 0.00000
3729.46 0.00787402 0.0157480 0.00000 0.00787402 0.0157480 0.00787402 0.00000 0.00000
3729.46 0.00787402 -0.00787402 -0.00787402 -0.0157480 -0.00787402 -0.00787402 -0.00787402 -0.00787402
3744.72 -0.0157480 -0.0157480 -0.00787402 0.00000 -0.0157480 -0.00787402 -0.00787402 0.00000
3744.72 0.00787402 -0.00787402 0.00000 0.00000 0.00787402 0.00000 -0.00787402 0.00000
3751.74 -0.00787402 -0.0157480 -0.00787402 0.00000 0.00000 -0.0157480 -0.0157480 -0.00787402
3751.74 0.00000 -0.00787402 0.00000 0.00787402 0.0393701 0.0472441 -0.0157480 -0.00787402
3766.99 -0.00787402 0.00787402 -0.0314961 -0.0314961 0.0157480 0.0157480 0.00787402 0.00000
3766.99 0.00000 0.00000 -0.00787402 -0.0157480 -0.00787402 -0.0314961 0.00000 -0.00787402
3789.83 0.00000 -0.0157480 -0.00787402 0.00787402 0.0314961 0.0944882 0.00000 -0.00787402
3789.83 -0.00787402 -0.00787402 0.00000 -0.00787402 0.0472441 0.0314961 -0.0157480 0.00000
3794.37 0.00787402 -0.0157480 -0.00787402 0.00000 0.00000 0.00000 -0.00787402 -0.00787402
3794.37 0.00000 -0.00787402 -0.00787402 -0.00787402 0.00000 0.00000 0.00000 -0.00787402
3810.04 -0.00787402 -0.00787402 0.00000 -0.00787402 0.0314961 -0.0157480 0.00787402 -0.00787402
3810.04 -0.00787402 0.00000 0.00000 -0.00787402 -0.0314961 -0.0472441 -0.00787402 0.00000
3819.47 -0.0157480 -0.00787402 -0.0157480 -0.00787402 -0.00787402 0.00000 -0.00787402 0.00000
3819.47 0.00787402 -0.00787402 -0.0157480 -0.00787402 0.0157480 0.00787402 -0.0157480 -0.0157480
3834.42 0.00000 -0.00787402 0.00000 -0.00787402 0.00787402 0.0157480 0.00787402 0.00000
3834.42 0.00000 0.00787402 -0.00787402 -0.00787402 -0.0314961 -0.0314961 -0.0157480 0.00000
3849.43 -0.00787402 0.00787402 0.00000 0.0157480 -0.0157480 -0.0157480 -0.0157480 0.00000
3849.43 -0.0236220 -0.0236220 0.00000 0.00000 0.00000 0.00000 0.00000 0.00787402
3872.00 0.00000 0.00787402 -0.00787402 -0.00787402 -0.0314961 -0.0314961 -0.00787402 -0.0236220
3872.00 0.00787402 0.00000 0.00000 0.00000 0.0236220 0.0157480 0.00000 0.00000
3877.64 -0.00787402 -0.00787402 -0.00787402 -0.00787402 -0.00787402 -0.0157480 -0.0157480 -0.0157480
3877.64 -0.00787402 -0.0157480 -0.0236220 -0.00787402 -0.0314961 -0.0157480 -0.00787402 0.00000
3894.43 0.00000 -0.00787402 -0.0157480 -0.0157480 0.00000 -0.0236220 -0.0157480 0.00000
3894.43 0.00000 0.00787402 0.00000 0.00787402 -0.00787402 0.0157480 -0.00787402 -0.00787402
3899.35 0.00000 0.00000 -0.00787402 0.00000 0.00000 -0.00787402 -0.00787402 -0.00787402
3899.35 -0.00787402 -0.00787402 -0.0157480 -0.00787402 -0.0157480 -0.00787402 0.00000 -0.00787402
3916.62 -0.0236220 -0.0157480 -0.00787402 0.00787402 -0.00787402 -0.00787402 -0.00787402 0.00000
3916.62 0.00000 0.00787402 0.00787402 0.00000 -0.00787402 -0.00787402 -0.00787402 -0.0157480
3932.64 0.00000 -0.00787402 0.00000 -0.0157480 0.00000 -0.0157480 0.00000 -0.00787402
3932.64 0.00000 -0.0236220 0.00787402 -0.0157480 -0.00787402 0.00787402 0.00787402 -0.00787402
3946.94 -0.0157480 -0.0157480 0.00000 0.00000 -0.00787402 -0.0157480 0.00000 -0.00787402
3946.94 0.00000 -0.0157480 -0.00787402 -0.00787402 0.00000 0.00787402 -0.00787402 -0.0236220
3954.34 0.00000 -0.0157480 -0.00787402 0.00000 -0.0236220 0.00000 0.00000 -0.00787402
3954.34 -0.00787402 -0.00787402 -0.00787402 -0.00787402 0.00000 0.00787402 -0.00787402 0.00000
3969.37 -0.0157480 -0.00787402 0.0157480 0.00000 0.00000 -0.0157480 0.00787402 -0.00787402
3969.37 0.00000 -0.00787402 0.00000 -0.00787402 -0.0157480 -0.0236220 -0.00787402 -0.00787402
3984.42 -0.00787402 -0.00787402 -0.00787402 0.00787402 -0.0157480 -0.00787402 -0.0157480 -0.00787402
3984.42 -0.00787402 -0.00787402 0.00000 0.00000 0.0157480 -0.0157480 -0.0157480 0.00000
3991.96 0.00787402 0.00000 0.00000 -0.0157480 -0.0157480 0.00000 0.00000 0.00000
3991.96 -0.0157480 -0.00787402 0.00000 0.00000 -0.00787402 0.00000 0.00000 -0.00787402
4007.56 -0.00787402 -0.00787402 0.00000 0.00000 -0.00787402 -0.0157480 -0.00787402 -0.0157480
4007.56 0.00787402 0.0157480 0.00000 0.00787402 -0.0157480 -0.00787402 0.00000 -0.0157480
4014.39 -0.00787402 -0.00787402 -0.00787402 -0.00787402 -0.0236220 0.00000 -0.00787402 -0.00787402
4014.39 0.00000 -0.00787402 0.00000 0.00000 -0.0157480 -0.0157480 -0.00787402 0.00000
4029.91 0.00000 -0.00787402 -0.0157480 0.00000 -0.00787402 0.00000 -0.00787402 -0.00787402
4029.91 -0.00787402 -0.0157480 -0.0236220 -0.00787402 0.00000 0.00000 -0.00787402 0.00000
4044.78 0.00000 0.0157480 0.00787402 -0.0157480 -0.00787402 0.00000 -0.00787402 -0.00787402
4044.78 -0.00787402 -0.00787402 -0.00787402 -0.00787402 0.00000 -0.0157480 0.00000 0.00000
4051.62 0.00000 0.00787402 -0.0157480 -0.00787402 0.00787402 -0.00787402 0.00000 0.00000
4051.62 -0.00787402 -0.00787402 -0.00787402 0.00000 0.00000 -0.0157480 0.00000 -0.0157480
4074.88 0.00000 0.00000 -0.00787402 0.00000 -0.00787402 -0.00787402 -0.00787402 -0.00787402
4074.88 -0.0157480 0.00000 -0.00787402 -0.00787402 -0.00787402 -0.00787402 -0.00787402 -0.00787402
4081.93 -0.00787402 -0.0157480 0.00000 -0.00787402 0.00000 0.00000 0.00787402 0.00000
4081.93 0.00787402 0.00787402 -0.0157480 0.00000 0.00000 -0.0157480 0.00000 0.00000
4096.93 -0.0157480 -0.0157480 -0.0157480 -0.0157480 -0.00787402 -0.00787402 -0.00787402 -0.00787402
4096.93 0.00787402 -0.00787402 0.00787402 -0.00787402 0.00000 -0.00787402 -0.0157480 -0.00787402
4112.01 -0.00787402 0.00787402 -0.00787402 0.00787402 0.0393701 0.0314961 0.00787402 -0.0157480
4112.01 -0.00787402 0.00000 -0.0157480 0.00787402 -0.0157480 -0.0393701 0.00000 -0.00787402
4126.79 -0.0157480 0.00000 -0.0157480 -0.00787402 0.00000 0.0393701 0.00787402 -0.00787402
4126.79 -0.00787402 -0.0157480 0.00000 -0.0157480 0.00787402 0.00000 0.00787402 0.00000
4132.69 -0.0157480 -0.00787402 -0.00787402 0.00000 -0.0157480 -0.0236220 -0.0157480 0.00787402
4132.69 -0.0157480 -0.00787402 -0.0157480 0.00000 0.0157480 0.0314961 0.00000 -0.00787402
4149.42 0.00000 0.00000 -0.00787402 -0.00787402 0.00787402 0.0157480 -0.00787402 -0.00787402
4149.42 0.00787402 -0.00787402 0.00000 -0.0157480 -0.0236220 0.0314961 -0.00787402 -0.00787402
4164.47 -0.0236220 -0.00787402 -0.00787402 -0.0314961 -0.0393701 -0.110236 -0.0236220 -0.00787402
4164.47 -0.00787402 -0.00787402 -0.0157480 0.00000 0.0314961 0.00000 -0.00787402 -0.0236220
4172.40 0.00000 0.00000 0.00000 0.00787402 0.00787402 0.0472441 0.00000 -0.00787402
4172.40 -0.0157480 -0.00787402 0.00000 -0.00787402 -0.0944882 -0.188976 -0.0157480 -0.00787402
4186.90 -0.00787402 -0.00787402 -0.0157480 0.00000 -0.0236220 0.0314961 -0.0157480 -0.00787402
4186.90 0.00000 0.00000 0.00000 -0.00787402 -0.00787402 -0.0157480 -0.00787402 -0.00787402
4194.34 0.00000 -0.0157480 0.00000 -0.0157480 0.00787402 -0.0314961 0.00000 -0.00787402
4194.34 -0.00787402 -0.00787402 -0.00787402 -0.0157480 0.0236220 0.0551181 0.00000 0.00000
4209.85 -0.00787402 -0.0157480 -0.00787402 -0.00787402 0.00000 -0.0157480 -0.00787402 -0.00787402
4209.85 -0.0157480 0.00000 -0.00787402 -0.00787402 0.00787402 0.0236220 0.00000 0.00000
4224.42 0.00000 -0.0157480 -0.00787402 -0.0157480 0.00000 -0.0236220 -0.0157480 0.00000
4224.42 -0.00787402 -0.00787402 0.00000 -0.00787402 -0.00787402 0.0472441 0.00000 -0.00787402
4231.75 0.00000 -0.0157480 -0.00787402 -0.0157480 -0.0314961 -0.0314961 -0.0157480 0.00000
4231.75 -0.00787402 -0.00787402 0.00000 0.00000 0.0236220 0.0236220 -0.0157480 0.00000
4246.86 -0.00787402 -0.0157480 -0.00787402 0.00787402 -0.0157480 0.00000 0.00000 -0.00787402
4246.86 0.00000 -0.0157480 0.00787402 -0.0157480 0.00000 0.00000 -0.00787402 0.00000
4254.39 -0.0157480 0.00000 0.00000 -0.0157480 -0.00787402 -0.0157480 -0.0157480 -0.0157480
4254.39 0.00000 -0.00787402 0.00787402 0.00000 0.00787402 0.00000 0.00787402 0.00000
4277.18 0.00000 -0.00787402 0.00000 -0.00787402 0.0314961 0.00000 0.00787402 -0.00787402
4277.18 0.00000 -0.0157480 -0.00787402 0.00000 -0.0157480 0.00787402 -0.0157480 0.00000
4291.73 0.00000 -0.00787402 -0.00787402 0.00000 -0.0157480 0.00787402 0.00000 0.00000
4291.73 0.00000 0.00000 -0.00787402 0.0157480 0.00000 0.0157480 0.00000 -0.00787402
4299.52 0.00000 -0.00787402 0.00787402 -0.00787402 -0.0157480 -0.00787402 -0.0236220 -0.00787402
4299.52 -0.00787402 0.00000 -0.0157480 -0.00787402 0.00787402 0.0157480 -0.00787402 -0.00787402
4314.40 -0.00787402 -0.00787402 0.00000 0.00787402 -0.0157480 -0.00787402 0.00000 -0.00787402
4314.40 -0.0157480 0.00787402 0.00000 -0.00787402 -0.00787402 -0.0236220 -0.00787402 0.00000
4329.43 0.00000 0.00000 -0.00787402 -0.0157480 -0.0157480 0.00000 -0.00787402 -0.0157480
4329.43 -0.00787402 0.00000 0.00000 -0.00787402 0.00000 -0.00787402 -0.00787402 -0.0157480
4336.87 -0.00787402 -0.00787402 0.00000 0.00000 -0.0236220 -0.0236220 -0.00787402 0.00000
4336.87 -0.00787402 -0.00787402 -0.00787402 -0.0236220 -0.00787402 0.00000 -0.00787402 0.00787402
4351.77 -0.00787402 0.00000 -0.00787402 0.00000 0.0236220 0.00000 0.00787402 -0.00787402
4351.77 -0.00787402 -0.00787402 0.00000 -0.00787402 0.00000 -0.00787402 -0.00787402 -0.0157480
4359.49 -0.00787402 -0.00787402 0.00787402 0.00000 -0.0157480 -0.0236220 -0.00787402 0.00000
4359.49 -0.00787402 0.00000 -0.00787402 -0.0157480 -0.0157480 0.00000 0.00787402 -0.00787402
4374.81 -0.00787402 -0.0157480 -0.0157480 0.00000 -0.0236220 -0.0157480 0.00000 -0.00787402
4374.81 -0.00787402 -0.00787402 -0.0157480 0.00000 -0.00787402 0.00787402 -0.0157480 -0.0157480
4388.46 0.00000 -0.00787402 -0.00787402 -0.0157480 -0.00787402 -0.00787402 -0.00787402 0.00787402
4388.46 0.00000 0.00000 0.00000 0.00787402 -0.00787402 0.00787402 -0.0157480 0.0157480
4404.39 -0.00787402 0.00000 0.00787402 -0.0157480 -0.0157480 -0.00787402 -0.0157480 -0.00787402
4404.39 -0.00787402 -0.00787402 -0.00787402 -0.00787402 0.00000 -0.00787402 -0.00787402 -0.0236220
4412.28 -0.00787402 -0.0157480 0.00000 -0.0157480 0.0236220 0.00787402 0.00787402 -0.00787402
4412.28 -0.0157480 0.00000 -0.00787402 0.00000 -0.0393701 -0.0629921 -0.00787402 -0.0157480
4434.39 0.00000 0.00000 -0.0157480 -0.0157480 -0.0236220 -0.0157480 -0.0157480 -0.0236220
4434.39 0.00000 0.00000 -0.00787402 0.00000 0.00787402 0.0314961 -0.0157480 0.00000
4442.00 -0.00787402 0.00787402 -0.0236220 0.00000 -0.00787402 -0.0236220 -0.0157480 0.00787402
4442.00 0.00000 -0.00787402 -0.0157480 -0.00787402 0.00787402 0.0472441 0.00000 -0.00787402
4457.02 -0.00787402 0.00787402 -0.00787402 0.00000 0.0393701 0.00000 -0.00787402 -0.00787402
4457.02 0.00000 -0.00787402 -0.00787402 0.00787402 -0.0236220 -0.00787402 0.00000 0.00000
4471.80 0.00000 -0.0157480 -0.00787402 0.00000 0.0314961 0.0708661 -0.00787402 0.00000
4471.80 0.00000 -0.0157480 0.00000 -0.00787402 -0.0236220 -0.0708661 -0.0157480 -0.00787402
4479.48 -0.00787402 0.00000 -0.00787402 -0.00787402 -0.0236220 -0.0157480 -0.00787402 -0.0157480
4479.48 -0.00787402 -0.0157480 -0.00787402 0.00000 0.00787402 -0.00787402 0.00000 0.00000
4493.71 0.00000 -0.00787402 -0.0157480 -0.00787402 -0.0314961 -0.0551181 -0.00787402 -0.0157480
4493.71 0.00000 -0.00787402 -0.00787402 -0.00787402 0.0157480 0.0236220 0.00000 -0.00787402
4510.13 -0.00787402 -0.0157480 -0.0157480 -0.00787402 -0.0157480 0.00000 -0.00787402 -0.00787402
4510.13 0.00000 -0.00787402 0.00000 -0.0157480 0.00787402 0.00787402 -0.00787402 0.00000
4524.48 0.00000 -0.00787402 0.00000 -0.0157480 -0.0157480 0.00000 0.00000 -0.00787402
4524.48 0.00000 -0.00787402 -0.00787402 -0.0157480 0.00000 -0.00787402 0.00000 0.00000
4539.49 -0.00787402 -0.00787402 -0.00787402 0.0157480 -0.0236220 0.00000 0.00000 0.00000
4539.49 -0.0157480 -0.00787402 -0.0157480 0.00000 -0.00787402 0.00787402 -0.0157480 0.00000
4554.35 0.00787402 0.00000 -0.00787402 0.00787402 0.0314961 0.0157480 0.00787402 -0.00787402
4554.35 -0.00787402 -0.0157480 -0.00787402 -0.0236220 -0.0787402 -0.0472441 -0.0157480 -0.0236220
4561.93 -0.00787402 0.00787402 0.00787402 0.00787402 0.00787402 0.0314961 -0.0157480 0.00000
4561.93 0.00000 -0.00787402 0.00000 -0.0236220 -0.00787402 -0.0236220 -0.0157480 -0.00787402
4577.13 0.00000 -0.00787402 -0.00787402 -0.00787402 -0.0157480 0.0157480 -0.0157480 0.00787402
4577.13 -0.0236220 -0.00787402 0.00000 0.00787402 0.0157480 0.00000 0.00000 -0.00787402
4590.11 0.00787402 -0.00787402 -0.0157480 -0.00787402 -0.0314961 -0.00787402 0.00000 0.00000
4590.11 0.00000 -0.00787402 -0.00787402 0.00000 0.00787402 0.00000 -0.00787402 0.00000
4614.35 0.00000 -0.00787402 -0.0157480 -0.00787402 0.0314961 0.00000 0.00000 -0.0157480
4614.35 -0.00787402 -0.00787402 0.00000 -0.00787402 0.00000 -0.00787402 0.00000 -0.00787402
4621.85 -0.00787402 0.00000 0.00000 0.00000 -0.00787402 -0.00787402 -0.00787402 -0.00787402
4621.85 0.00000 -0.00787402 -0.0157480 -0.00787402 -0.0157480 0.00000 -0.00787402 -0.0236220
4636.95 0.00787402 -0.00787402 -0.00787402 -0.0157480 0.00000 0.0157480 0.0157480 0.00000
4636.95 -0.00787402 0.00000 -0.00787402 0.00000 -0.00787402 -0.00787402 -0.00787402 -0.00787402
4651.86 -0.00787402 -0.0157480 0.00787402 -0.0157480 -0.0157480 -0.0157480 -0.0157480 0.00000
4651.86 0.00000 -0.00787402 -0.0157480 0.00000 0.00787402 0.00787402 0.00000 0.00000
4659.42 -0.00787402 0.00000 -0.00787402 -0.00787402 -0.00787402 -0.0157480 -0.00787402 -0.00787402
4659.42 0.00787402 -0.00787402 -0.00787402 -0.0157480 0.00000 0.00000 -0.00787402 0.00000
4674.97 0.00000 -0.0157480 -0.0157480 0.00000 -0.0157480 -0.0157480 0.00787402 -0.00787402
4674.97 -0.00787402 -0.00787402 -0.00787402 -0.0157480 0.00000 -0.00787402 0.00000 -0.0157480
4689.86 -0.00787402 -0.00787402 0.00000 0.00000 0.00000 0.00000 -0.0157480 -0.00787402
4689.86 0.00000 -0.00787402 -0.00787402 -0.00787402 -0.00787402 0.00000 -0.00787402 -0.00787402
4704.44 0.00000 -0.0157480 -0.0157480 -0.0157480 -0.0157480 -0.0236220 -0.00787402 0.00000
4704.44 -0.0157480 -0.0157480 0.00000 0.00000 -0.00787402 -0.00787402 -0.00787402 -0.00787402
4711.90 -0.00787402 0.00000 -0.0157480 -0.0157480 -0.00787402 0.00000 0.00000 -0.00787402
4711.90 -0.00787402 -0.00787402 0.00000 0.00000 0.00000 -0.0157480 -0.00787402 0.00000
4726.98 0.00787402 0.00000 0.00787402 -0.00787402 -0.0157480 0.00787402 0.00787402 0.00787402
4726.98 0.00000 0.00000 -0.00787402 -0.0157480 -0.0236220 0.00000 0.00787402 0.00000
4734.41 -0.00787402 0.00000 0.00787402 -0.00787402 0.00000 -0.00787402 0.00000 0.00000
4734.41 -0.0157480 -0.00787402 -0.00787402 -0.00787402 -0.00787402 -0.0157480 -0.00787402 0.00787402
4749.39 0.00787402 -0.0157480 -0.00787402 -0.00787402 0.00000 -0.00787402 -0.0157480 -0.0157480
4749.39 -0.00787402 0.00787402 -0.0236220 0.00000 -0.00787402 0.00000 -0.0157480 -0.00787402
4764.49 -0.0157480 -0.00787402 -0.00787402 -0.0157480 0.00000 0.00000 -0.00787402 -0.00787402
4764.49 -0.0236220 -0.00787402 0.00000 0.00787402 0.0157480 -0.00787402 0.00787402 -0.00787402
4771.64 -0.00787402 -0.00787402 -0.0157480 0.00000 -0.00787402 0.00000 -0.00787402 0.00000
4771.64 0.00000 0.00000 -0.00787402 0.00787402 -0.00787402 0.00000 0.00787402 -0.00787402
4786.43 0.00000 -0.0157480 -0.00787402 -0.00787402 -0.0157480 0.00000 -0.00787402 0.00787402
4786.43 0.00000 0.00000 -0.0157480 -0.00787402 -0.0157480 0.00000 -0.00787402 0.00000
4794.44 0.00000 -0.00787402 -0.00787402 0.00000 0.00000 -0.00787402 0.00787402 -0.00787402
4794.44 -0.00787402 -0.00787402 -0.00787402 0.00000 -0.00787402 -0.0236220 -0.00787402 -0.0236220
4816.79 -0.00787402 -0.00787402 0.00787402 0.00000 -0.00787402 0.00000 -0.00787402 -0.0157480
4816.79 -0.00787402 -0.00787402 -0.00787402 -0.00787402 0.00000 -0.0157480 -0.0157480 -0.00787402
4825.14 -0.00787402 -0.0157480 -0.00787402 0.00000 -0.00787402 0.00000 -0.00787402 -0.00787402
4825.14 -0.00787402 -0.00787402 -0.00787402 -0.00787402 -0.00787402 -0.00787402 0.00000 -0.00787402
4846.89 -0.0157480 -0.0157480 -0.0157480 -0.0157480 -0.00787402 -0.00787402 0.00000 -0.00787402
4846.89 0.00000 -0.00787402 0.00000 -0.00787402 -0.00787402 -0.00787402 0.00787402 -0.00787402
4862.31 -0.00787402 0.00000 0.00000 -0.00787402 0.00000 0.00000 0.00000 0.00000
4862.31 -0.00787402 -0.00787402 -0.0157480 0.00000 -0.0157480 0.00000 0.00000 -0.00787402
4869.43 0.00787402 -0.00787402 -0.00787402 -0.00787402 0.00000 0.0236220 0.00000 0.00000
4869.43 0.00000 0.00787402 -0.0157480 0.00787402 -0.00787402 -0.0157480 -0.0157480 0.00000
4877.19 -0.00787402 -0.00787402 0.00000 0.00000 -0.0157480 -0.00787402 -0.00787402 0.00000
4877.19 -0.00787402 -0.00787402 -0.00787402 0.00000 -0.00787402 0.00000 -0.00787402 -0.00787402
4884.38 0.00000 -0.00787402 0.00000 -0.00787402 -0.00787402 -0.0157480 -0.00787402 -0.0157480
4884.38 -0.00787402 0.00787402 -0.00787402 -0.0236220 -0.00787402 0.00787402 0.00000 -0.00787402
4892.48 -0.00787402 -0.0157480 -0.0157480 -0.00787402 -0.0236220 -0.0157480 -0.00787402 0.00000
4892.48 -0.00787402 0.00000 -0.00787402 -0.00787402 -0.00787402 -0.00787402 -0.0157480 -0.00787402
4907.74 -0.00787402 0.00787402 -0.0157480 -0.00787402 -0.00787402 0.00000 0.00000 -0.00787402
4907.74 0.00000 0.00000 0.00787402 0.00000 0.00000 0.00000 0.00000 -0.0157480
4913.74 -0.0157480 0.00000 -0.00787402 -0.00787402 -0.0236220 -0.0236220 -0.0157480 -0.00787402
4913.74 -0.0157480 -0.0157480 0.00000 -0.00787402 0.00787402 0.00787402 0.00000 -0.00787402
4927.57 0.00000 -0.00787402 -0.0157480 0.00000 -0.0157480 0.00000 -0.00787402 0.00000
4927.57 0.00000 -0.0157480 0.00000 0.00000 0.00787402 -0.0157480 -0.0157480 -0.00787402
4937.25 -0.0157480 -0.00787402 0.00787402 -0.0157480 -0.00787402 0.0236220 0.00000 -0.00787402
4937.25 -0.00787402 0.00000 -0.00787402 -0.0157480 -0.00787402 -0.0157480 -0.00787402 -0.00787402
4951.96 0.00000 -0.0157480 -0.00787402 0.00787402 0.00787402 0.00787402 -0.00787402 -0.0157480
4951.96 0.00787402 0.00787402 0.00000 -0.00787402 0.00787402 -0.00787402 0.00000 0.00000
4966.93 -0.00787402 -0.00787402 0.00000 -0.00787402 0.00000 -0.0157480 -0.00787402 -0.0157480
4966.93 -0.00787402 0.00000 -0.0236220 -0.00787402 0.00000 -0.00787402 0.00000 -0.00787402
4974.68 0.00000 0.00000 -0.0157480 0.00000 -0.00787402 0.00000 0.00000 0.00000
4974.68 0.00787402 -0.0157480 -0.00787402 0.00787402 0.00000 -0.00787402 -0.00787402 0.00000
4989.63 0.00787402 -0.00787402 -0.0236220 -0.00787402 -0.00787402 -0.0157480 -0.0157480 -0.0157480
4989.63 0.00000 0.00000 -0.0157480 -0.00787402 -0.00787402 0.0157480 0.00000 0.00000
4994.64 0.00000 0.00000 -0.00787402 -0.0314961 -0.0157480 0.00000 -0.00787402 -0.00787402
4994.64 -0.00787402 -0.00787402 0.00787402 0.00000 -0.00787402 0.00000 -0.00787402 -0.00787402
5011.77 -0.00787402 -0.00787402 0.00000 0.00000 -0.0157480 0.00000 0.00000 0.0157480
5011.77 -0.0157480 -0.00787402 -0.00787402 0.00000 -0.0157480 0.00000 -0.0157480 -0.0157480
5027.09 0.00000 0.00787402 0.00787402 0.00787402 0.00787402 0.00000 0.00000 0.00787402
5027.09 -0.00787402 0.00000 0.00000 0.00000 -0.00787402 0.00000 0.00000 -0.0157480
5034.39 0.00000 -0.00787402 -0.00787402 0.00000 0.00000 -0.00787402 -0.0157480 0.00000
5034.39 -0.0157480 -0.00787402 -0.0236220 -0.00787402 0.00000 0.0157480 -0.00787402 0.0157480
5050.10 -0.00787402 -0.00787402 0.00787402 -0.00787402 0.00000 -0.0157480 0.00000 -0.0157480
5050.10 -0.00787402 -0.00787402 -0.00787402 -0.0157480 0.00787402 0.0157480 0.00787402 -0.00787402
5057.36 -0.0157480 0.00787402 0.00000 -0.0157480 -0.00787402 -0.00787402 -0.00787402 -0.0157480
5057.36 0.00787402 -0.0157480 -0.00787402 -0.00787402 0.00000 -0.00787402 -0.00787402 -0.00787402
5077.02 0.00000 0.00000 0.00000 0.00000 -0.00787402 -0.0157480 -0.0236220 -0.00787402
5077.02 -0.00787402 -0.00787402 0.00000 -0.0157480 -0.0157480 -0.00787402 0.00000 -0.00787402
5101.92 -0.00787402 -0.0157480 -0.0236220 -0.0157480 -0.00787402 -0.00787402 -0.0157480 0.00787402
5101.92 0.00000 -0.00787402 -0.00787402 0.00000 0.00787402 0.00000 0.00000 -0.0157480
5107.95 -0.0157480 0.00787402 -0.00787402 -0.0157480 0.00000 -0.0157480 -0.00787402 0.00000
5107.95 0.00000 -0.0157480 0.00787402 -0.0236220 -0.00787402 0.00787402 -0.00787402 -0.00787402
5124.81 -0.00787402 -0.00787402 0.00000 0.00787402 -0.00787402 -0.0157480 0.00787402 0.00000
5124.81 -0.0236220 0.00000 0.00000 0.00000 -0.00787402 -0.00787402 0.00000 -0.0157480
5139.62 0.00000 -0.00787402 0.00000 -0.0236220 -0.0157480 0.00000 0.00787402 -0.0157480
5139.62 0.00000 -0.00787402 -0.00787402 -0.00787402 0.0157480 0.00000 0.00000 -0.0157480
5154.37 0.00000 -0.00787402 -0.00787402 0.00000 0.00000 -0.0157480 -0.0157480 -0.0157480
5154.37 -0.00787402 -0.00787402 -0.00787402 0.00000 -0.00787402 -0.0236220 -0.00787402 -0.00787402
5169.36 -0.0157480 -0.00787402 -0.0157480 -0.00787402 0.00787402 0.00000 0.00000 -0.00787402
5169.36 -0.0157480 0.00787402 -0.00787402 0.00787402 -0.00787402 0.0157480 0.00787402 -0.00787402
5176.91 -0.0157480 -0.00787402 -0.0236220 0.00787402 0.00000 -0.0314961 -0.0157480 -0.00787402
5176.91 -0.00787402 -0.0157480 -0.00787402 -0.0236220 -0.0157480 -0.00787402 -0.00787402 0.00000
5191.99 -0.0157480 -0.00787402 0.00000 -0.00787402 0.00000 -0.00787402 0.00000 -0.00787402
5191.99 -0.00787402 0.00000 -0.00787402 0.00787402 0.00787402 -0.00787402 0.00787402 0.00787402
5206.89 -0.00787402 -0.00787402 0.00000 -0.00787402 -0.0157480 -0.00787402 -0.00787402 0.00787402
5206.89 0.00000 -0.00787402 -0.00787402 -0.00787402 0.00000 -0.00787402 0.00000 0.00000
5214.45 0.00000 -0.00787402 0.00000 0.00000 -0.00787402 0.00787402 -0.00787402 -0.00787402
5214.45 0.00000 -0.0157480 0.00000 -0.00787402 -0.0157480 -0.0236220 -0.00787402 0.00000
5229.55 0.00000 0.00000 -0.0157480 0.00000 0.00000 -0.00787402 0.00000 -0.0157480
5229.55 -0.00787402 -0.00787402 -0.0157480 0.00000 -0.0157480 0.00000 -0.00787402 -0.00787402
5236.95 0.00787402 -0.0157480 -0.0157480 0.00000 0.00000 0.00000 -0.0157480 -0.00787402
5236.95 0.00000 0.00000 0.00000 -0.0157480 0.00000 0.00787402 -0.0236220 -0.00787402
5259.15 -0.00787402 -0.0157480 0.00000 -0.00787402 0.00000 0.00000 0.00787402 0.00000
5259.15 0.0157480 -0.00787402 -0.00787402 0.00000 -0.00787402 0.00787402 0.00000 -0.00787402
5274.60 -0.00787402 -0.0157480 -0.0157480 -0.00787402 -0.00787402 -0.00787402 -0.0157480 -0.00787402
5274.60 0.00000 -0.00787402 -0.00787402 -0.00787402 -0.00787402 -0.00787402 -0.00787402 -0.00787402
5282.21 0.00000 -0.00787402 0.00787402 -0.00787402 -0.00787402 -0.0393701 -0.00787402 -0.00787402
5282.21 -0.00787402 0.00787402 -0.00787402 0.00000 0.00787402 -0.00787402 -0.00787402 -0.00787402
5297.20 0.00000 0.00787402 -0.00787402 -0.00787402 0.00787402 0.00787402 0.0157480 0.00000
5297.20 -0.00787402 -0.00787402 -0.00787402 -0.00787402 -0.00787402 -0.00787402 -0.00787402 -0.00787402
5311.86 -0.00787402 -0.0157480 0.00000 -0.0157480 0.00000 -0.00787402 0.00787402 0.00000
5311.86 -0.00787402 -0.00787402 -0.00787402 -0.0157480 0.00000 0.00000 0.00000 0.00787402
5326.45 -0.00787402 0.00787402 -0.0157480 -0.00787402 -0.0157480 0.00787402 -0.00787402 0.00000
5326.45 -0.00787402 -0.00787402 0.00787402 0.00000 0.00787402 -0.0157480 -0.0236220 0.00000
5335.26 -0.0157480 0.00000 -0.00787402 -0.0157480 0.00000 0.00787402 -0.00787402 -0.00787402
5335.26 -0.00787402 -0.00787402 -0.00787402 -0.00787402 -0.0157480 -0.0157480 0.00000 -0.00787402
5349.36 -0.00787402 -0.0157480 0.00000 0.00787402 -0.00787402 -0.00787402 0.00000 -0.0236220
5349.36 0.00000 -0.00787402 0.00000 0.00000 0.00787402 0.00000 0.00000 -0.00787402
5357.40 -0.00787402 0.00000 -0.0157480 -0.00787402 0.00787402 0.0157480 -0.00787402 -0.00787402
5357.40 -0.00787402 0.00787402 0.00000 -0.0157480 0.00000 0.00000 -0.00787402 -0.00787402
5379.40 0.00000 0.00000 0.00000 0.00000 -0.0157480 -0.00787402 -0.00787402 -0.00787402
5379.40 0.00000 -0.0157480 -0.0236220 0.00000 -0.0157480 -0.0157480 -0.00787402 0.00787402
5392.70 0.00000 -0.00787402 -0.0157480 0.00787402 -0.0157480 -0.0236220 -0.00787402 -0.0157480
5394.72 0.00000 0.00000 -0.00787402 0.00000 -0.00787402 -0.00787402 -0.0157480 0.00000
5401.90 0.00787402 0.00000 -0.00787402 -0.00787402 -0.0157480 0.00000 0.00000 -0.00787402
5401.90 0.00000 0.00000 0.00787402 0.00000 -0.00787402 0.00000 0.00787402 -0.00787402
5416.80 -0.00787402 -0.00787402 0.00000 -0.0236220 -0.0157480 0.00000 -0.0157480 0.00000
5416.80 -0.00787402 0.00000 -0.00787402 0.00000 0.00000 0.00000 0.00000 0.00000
5431.80 0.00000 -0.0157480 -0.00787402 0.00000 0.00000 -0.00787402 -0.00787402 0.00000
5431.80 -0.00787402 0.00000 -0.00787402 -0.0157480 -0.0314961 -0.00787402 -0.00787402 -0.0157480
5444.83 -0.00787402 -0.00787402 -0.00787402 -0.00787402 0.00000 -0.00787402 0.00000 0.00000
5444.83 0.00000 -0.00787402 0.00000 0.00000 0.00000 0.00000 -0.0157480 -0.0157480
5454.38 -0.0236220 0.00000 -0.0157480 0.00000 -0.00787402 0.00000 0.00000 -0.0157480
5454.38 0.0157480 -0.00787402 -0.00787402 0.00000 -0.00787402 -0.00787402 0.00000 -0.0157480
5467.27 -0.0157480 0.00787402 -0.0157480 -0.00787402 0.00000 -0.0157480 0.00000 0.00787402
5467.27 -0.00787402 -0.0157480 -0.00787402 0.00787402 -0.00787402 0.00787402 0.00787402 -0.00787402
5477.17 -0.0236220 0.00000 -0.00787402 -0.00787402 0.00787402 -0.00787402 -0.0157480 -0.00787402
5477.17 -0.00787402 -0.00787402 0.00000 -0.00787402 -0.0157480 -0.00787402 -0.0157480 -0.0157480
5490.13 -0.00787402 -0.00787402 -0.0157480 0.00000 -0.00787402 -0.0236220 0.00787402 -0.00787402
5490.13 -0.0157480 -0.0157480 -0.00787402 0.00000 0.00787402 0.0157480 0.00787402 -0.00787402
5507.44 0.00000 -0.0157480 0.00000 -0.00787402 -0.00787402 -0.0157480 -0.00787402 0.00000
5507.44 0.00000 -0.00787402 -0.0157480 -0.00787402 -0.0157480 -0.0236220 -0.00787402 0.00000
5521.90 0.00000 -0.0157480 0.00000 0.00787402 -0.00787402 -0.0157480 0.00787402 -0.00787402
5521.90 -0.00787402 0.00787402 -0.0236220 0.00787402 -0.00787402 0.00000 0.00000 0.00787402
5536.95 0.00000 -0.00787402 0.0157480 -0.0157480 -0.00787402 0.00787402 0.00787402 0.00000
5536.95 -0.0157480 0.00000 0.00787402 -0.0157480 -0.00787402 0.00000 0.00000 0.00000
5544.73 -0.0157480 0.00787402 -0.0157480 -0.0157480 -0.00787402 0.00787402 -0.00787402 0.00787402
5544.73 -0.00787402 -0.0157480 0.00000 -0.00787402 0.00000 0.00000 0.00000 -0.00787402
5559.48 0.00000 -0.00787402 -0.00787402 0.00000 0.00787402 0.00787402 -0.0157480 -0.00787402
5559.48 0.00000 0.00000 0.00787402 -0.0157480 0.00000 -0.0157480 -0.00787402 -0.00787402
5574.78 0.0157480 0.00787402 -0.0157480 -0.0157480 0.00000 0.00000 0.00000 -0.00787402
5574.78 -0.00787402 0.00000 -0.00787402 0.00000 -0.0157480 0.00000 0.00000 0.00787402
5589.38 0.00000 -0.00787402 0.00000 -0.00787402 0.00000 -0.00787402 0.00000 -0.00787402
5589.38 -0.00787402 -0.00787402 -0.0157480 0.00787402 0.00000 -0.0236220 -0.00787402 -0.00787402
5594.41 0.00000 0.00000 -0.0157480 -0.00787402 -0.00787402 -0.0157480 -0.00787402 -0.00787402
5594.41 0.00000 -0.00787402 0.00000 -0.00787402 -0.00787402 0.00000 -0.0157480 -0.00787402
5612.12 -0.0157480 0.00000 -0.00787402 -0.00787402 -0.00787402 -0.00787402 -0.00787402 0.00000
5612.12 -0.0236220 -0.00787402 -0.00787402 0.00000 0.00000 -0.00787402 -0.00787402 0.00000
5624.92 -0.0157480 0.00000 -0.0157480 0.00000 -0.0157480 -0.00787402 -0.0157480 0.00000
5624.92 0.00000 0.00787402 0.00000 0.00000 0.00000 0.00000 0.00000 -0.00787402
5634.43 -0.00787402 0.00000 0.00000 0.00000 0.00000 -0.0157480 -0.00787402 -0.00787402
5634.43 0.00787402 0.00000 -0.0157480 0.00787402 0.00000 -0.00787402 0.00000 -0.0157480
5657.41 0.00000 -0.0157480 -0.0157480 -0.00787402 -0.0157480 -0.00787402 0.00787402 0.00000
5657.41 -0.00787402 -0.0157480 -0.00787402 -0.00787402 -0.0157480 -0.00787402 -0.00787402 -0.00787402
5671.87 0.00000 -0.0157480 0.00000 -0.00787402 -0.00787402 -0.00787402 0.00000 0.00000
5671.87 0.00000 -0.0157480 0.00000 0.00787402 0.00787402 0.00000 -0.0157480 0.00787402
5686.87 0.00000 -0.0236220 -0.0157480 -0.0157480 -0.0157480 -0.0157480 0.00000 -0.00787402
5686.87 0.00000 -0.00787402 -0.00787402 -0.0157480 -0.00787402 -0.00787402 0.00787402 -0.0157480
5700.26 -0.00787402 -0.00787402 -0.0157480 0.00000 0.00000 0.0157480 -0.0157480 0.00000
5700.26 0.00000 0.00000 -0.00787402 0.00000 0.00000 -0.0157480 0.00000 -0.00787402
5716.90 0.00000 0.00000 -0.00787402 -0.0157480 -0.0157480 0.00000 -0.0157480 -0.00787402
5716.90 0.00000 0.00787402 0.00000 0.00000 -0.00787402 0.00787402 -0.0236220 0.00000
5731.79 -0.00787402 -0.0157480 0.00000 0.00000 0.0157480 -0.00787402 -0.00787402 -0.0157480
5731.79 -0.00787402 0.00000 -0.00787402 -0.0157480 0.00000 -0.0157480 -0.00787402 0.00000
5739.35 0.00000 -0.0157480 -0.00787402 -0.00787402 0.00000 -0.00787402 -0.0157480 -0.00787402
5739.35 -0.00787402 0.00787402 -0.0157480 -0.0236220 -0.00787402 0.00000 -0.0157480 -0.00787402
5744.76 -0.00787402 0.00000 0.00000 0.00000 -0.0157480 0.0157480 -0.0157480 0.00787402
5744.76 -0.0157480 -0.0157480 -0.00787402 -0.0157480 0.00787402 -0.0236220 -0.00787402 -0.00787402
5761.82 -0.0157480 -0.00787402 0.00000 -0.00787402 -0.00787402 -0.0157480 0.00000 -0.0157480
5761.82 0.00000 -0.00787402 -0.00787402 -0.0157480 -0.00787402 -0.00787402 0.00000 -0.00787402
5777.23 -0.00787402 0.00787402 -0.00787402 -0.0157480 -0.0157480 0.0157480 -0.00787402 0.00000
5777.23 0.00787402 -0.00787402 -0.0157480 0.00787402 -0.00787402 -0.00787402 -0.00787402 -0.0157480
5796.98 0.00000 0.00000 -0.00787402 0.00000 0.00000 -0.0157480 0.00787402 -0.00787402
5799.91 -0.00787402 -0.0157480 -0.00787402 -0.00787402 0.00000 0.00000 -0.00787402 0.0157480
5807.18 0.00000 0.00000 0.00000 0.00000 -0.00787402 -0.0157480 0.00787402 -0.00787402
5807.18 -0.00787402 -0.00787402 0.00000 -0.0157480 0.00000 0.00787402 -0.00787402 -0.0157480
5821.91 -0.00787402 -0.00787402 0.00000 0.0157480 -0.00787402 -0.0314961 -0.00787402 0.00787402
5821.91 -0.0157480 -0.0236220 -0.00787402 -0.0157480 -0.00787402 0.0157480 -0.0157480 0.00000
5836.94 0.00000 0.00000 -0.0157480 0.00000 0.00000 -0.00787402 0.00000 -0.00787402
5836.94 -0.0157480 -0.00787402 0.0157480 0.00787402 -0.0157480 -0.00787402 -0.0157480 -0.00787402
5851.27 -0.0157480 0.00000 0.00787402 -0.0157480 -0.0157480 -0.00787402 -0.00787402 -0.00787402
5851.27 -0.00787402 -0.00787402 -0.00787402 0.00000 0.00000 -0.0157480 0.00000 -0.0157480
5856.96 -0.00787402 0.00000 0.00000 0.00787402 0.00000 -0.00787402 -0.0157480 0.00000
5856.96 0.00787402 0.00787402 -0.0236220 0.00787402 -0.00787402 -0.0236220 0.00000 -0.00787402
5874.69 0.00787402 -0.00787402 0.00000 0.00000 0.00000 -0.00787402 0.00000 0.00000
5874.69 -0.00787402 -0.00787402 0.00000 -0.00787402 0.00000 0.00787402 -0.00787402 0.00000
5889.36 0.00000 -0.00787402 -0.0157480 0.00000 0.00787402 -0.00787402 -0.00787402 -0.00787402
5889.36 -0.00787402 0.00000 -0.00787402 0.00000 -0.00787402 0.00000 -0.0236220 -0.00787402
5904.36 -0.00787402 -0.00787402 -0.00787402 -0.0157480 -0.00787402 0.00000 -0.00787402 0.00000
5904.36 -0.00787402 -0.00787402 -0.00787402 -0.00787402 -0.00787402 0.00000 0.00000 0.00000
5919.39 -0.00787402 0.00787402 -0.00787402 -0.0157480 0.00787402 -0.00787402 -0.00787402 -0.00787402
5919.39 -0.00787402 -0.0236220 -0.00787402 -0.00787402 -0.0157480 -0.0157480 0.00000 0.00787402
5926.91 -0.0157480 -0.00787402 -0.0157480 0.00000 0.00000 -0.00787402 -0.00787402 -0.0236220
5926.91 0.00000 -0.00787402 -0.0236220 -0.00787402 -0.0157480 -0.0236220 -0.00787402 -0.00787402
5942.21 -0.0157480 0.00000 0.00000 0.0157480 0.00787402 -0.0157480 -0.00787402 0.00787402
5942.21 -0.00787402 0.00000 -0.0236220 0.00000 -0.00787402 -0.00787402 0.00000 -0.0236220
5955.78 0.00787402 -0.0157480 -0.0157480 -0.0157480 -0.00787402 0.00000 0.00000 -0.0157480
5955.78 -0.00787402 0.00000 -0.00787402 -0.0157480 -0.00787402 -0.00787402 -0.00787402 0.00000
5971.67 -0.00787402 0.00000 -0.00787402 -0.00787402 -0.00787402 -0.0157480 -0.00787402 0.00000
5971.67 -0.00787402 0.00000 0.00000 0.00000 0.0236220 -0.00787402 0.00000 -0.00787402
5986.92 -0.00787402 -0.0157480 0.00000 -0.0157480 -0.0157480 -0.0157480 0.00000 0.00787402
5986.92 0.00000 -0.00787402 0.00000 0.00000 0.00000 0.00000 0.00787402 0.00000
6001.91 0.00000 0.00000 -0.00787402 -0.0157480 0.00787402 -0.00787402 0.00000 -0.00787402
6001.91 0.00000 -0.00787402 0.00000 -0.00787402 0.00000 0.00000 -0.0157480 -0.00787402
6024.79 -0.00787402 0.00000 -0.0157480 0.00000 -0.00787402 -0.00787402 0.00000 -0.0157480
6024.79 0.00787402 0.00787402 -0.00787402 -0.00787402 0.00000 0.00000 -0.0157480 -0.00787402
6031.92 0.00000 -0.00787402 0.00000 0.00787402 0.00787402 -0.00787402 -0.00787402 0.00000
6031.92 -0.00787402 -0.00787402 0.00000 0.00000 -0.00787402 -0.00787402 0.00787402 -0.00787402
6039.40 -0.00787402 0.00000 -0.00787402 0.00000 0.00000 0.00000 0.00000 0.00000
6039.40 0.00000 0.00000 0.00000 0.00000 -0.00787402 -0.0157480 0.00000 -0.00787402
6046.99 -0.00787402 -0.0157480 -0.0157480 0.00000 -0.00787402 0.0157480 -0.0236220 0.00000
6046.99 -0.00787402 -0.00787402 0.00787402 0.00787402 0.00000 0.00000 -0.0157480 -0.00787402
6059.32 0.00000 0.00000 0.00000 0.00000 0.00000 0.00000 -0.00787402 -0.0236220
6059.32 -0.00787402 0.00000 -0.00787402 -0.00787402 -0.00787402 -0.0157480 -0.00787402 -0.00787402
6077.17 0.00787402 -0.00787402 0.00000 -0.00787402 -0.0157480 0.00000 0.00000 -0.0157480
6077.17 0.00787402 -0.0157480 -0.0157480 0.00000 0.00787402 -0.00787402 -0.00787402 -0.0157480
6091.89 0.00000 -0.00787402 -0.00787402 -0.00787402 -0.00787402 0.00000 -0.0236220 0.00787402
6091.89 -0.0157480 0.00000 0.00000 -0.00787402 -0.0236220 0.00787402 0.00000 -0.00787402
6099.43 -0.00787402 0.00000 -0.00787402 -0.0157480 -0.0157480 -0.0157480 -0.00787402 0.00787402
6099.43 -0.0157480 -0.00787402 -0.0157480 -0.0157480 0.00000 -0.00787402 0.00000 -0.00787402
6114.38 -0.0236220 0.0157480 -0.0157480 0.00000 0.00000 0.0157480 -0.0157480 -0.00787402
6114.38 -0.0157480 -0.0157480 -0.00787402 -0.00787402 -0.00787402 0.00787402 -0.00787402 0.00000
6129.52 0.00000 0.00000 -0.00787402 -0.0157480 -0.00787402 -0.0157480 -0.00787402 -0.00787402
6129.52 -0.00787402 0.00787402 0.00000 -0.00787402 0.00000 -0.0157480 -0.00787402 0.00000
6136.88 0.00000 0.00000 -0.00787402 0.00000 0.00000 -0.0157480 -0.00787402 -0.00787402
6136.88 0.00000 -0.00787402 0.00000 -0.00787402 0.00000 0.00000 -0.00787402 -0.00787402
6151.94 -0.0157480 -0.0157480 0.00000 0.00000 0.00787402 0.00000 -0.00787402 0.00000
6151.94 -0.00787402 0.00000 -0.0157480 0.00000 -0.00787402 0.0157480 0.00787402 0.00787402
6157.37 0.00000 0.00000 0.00000 -0.0157480 0.00000 -0.00787402 0.00787402 0.00000
6157.37 0.00787402 0.00000 -0.00787402 0.00000 0.00000 -0.0157480 -0.0157480 -0.00787402
6181.85 -0.00787402 -0.00787402 -0.00787402 0.00000 -0.0157480 -0.00787402 -0.0157480 -0.0157480
6181.85 -0.0236220 -0.00787402 0.0157480 -0.00787402 0.00000 -0.0157480 0.00000 0.00000
6196.99 -0.0157480 -0.00787402 -0.0157480 0.00787402 -0.00787402 -0.00787402 0.00787402 0.00000
6196.99 -0.00787402 -0.0157480 -0.00787402 -0.0157480 0.00787402 -0.0157480 -0.00787402 -0.00787402
6204.37 0.00000 -0.00787402 -0.0157480 0.00787402 -0.00787402 0.00787402 -0.0157480 -0.00787402
6204.37 -0.0157480 0.00000 -0.00787402 0.00000 0.00000 -0.0157480 -0.00787402 0.00000
6217.00 0.00000 -0.00787402 -0.00787402 -0.00787402 -0.00787402 0.00000 -0.00787402 -0.00787402
6217.00 -0.00787402 0.00787402 -0.0157480 -0.00787402 0.00000 -0.00787402 -0.0236220 -0.0157480
6226.01 -0.00787402 -0.00787402 -0.0157480 0.00000 -0.00787402 0.00000 0.00000 -0.0236220
6226.01 -0.0157480 -0.00787402 -0.0157480 0.00000 0.00000 -0.00787402 0.00787402 0.00000
6234.39 -0.00787402 -0.00787402 -0.00787402 -0.0236220 -0.00787402 -0.0157480 0.00787402 -0.00787402
6234.39 -0.0236220 0.00000 -0.00787402 -0.00787402 -0.0157480 0.00787402 -0.00787402 0.00000
6249.45 -0.0157480 -0.00787402 0.00000 -0.0157480 -0.0236220 -0.0236220 -0.00787402 -0.00787402
6249.45 0.00000 -0.00787402 0.00000 0.00000 -0.00787402 0.00000 0.00000 0.00000
6257.22 -0.00787402 0.00000 0.00787402 0.00000 0.00000 -0.00787402 0.00000 0.00000
6257.22 0.00787402 -0.00787402 0.00000 0.00000 -0.0157480 0.00000 0.00000 0.00000
6271.94 0.00787402 0.00000 -0.00787402 -0.00787402 0.00787402 0.0157480 0.00000 0.00000
6271.94 -0.0157480 -0.00787402 -0.0157480 0.00000 -0.0157480 -0.00787402 -0.0157480 0.00000
6279.38 0.00000 -0.0157480 -0.00787402 -0.0157480 -0.0157480 0.00000 0.00000 0.00787402
6279.38 -0.00787402 -0.00787402 -0.00787402 -0.00787402 -0.00787402 -0.00787402 0.00000 0.00000
6307.46 0.00000 -0.00787402 0.00000 0.00787402 -0.0157480 -0.00787402 -0.0157480 -0.00787402
6307.46 -0.0157480 -0.00787402 -0.00787402 -0.00787402 0.00787402 0.00000 0.00000 0.00000
6325.10 -0.0157480 -0.0157480 -0.00787402 -0.00787402 -0.00787402 -0.00787402 -0.00787402 -0.00787402
6325.10 -0.0157480 -0.00787402 0.00000 -0.00787402 -0.0236220 -0.00787402 0.00000 -0.00787402
6331.95 0.00000 -0.00787402 -0.0157480 0.00787402 -0.00787402 -0.0314961 -0.00787402 0.00000
6331.95 0.00787402 0.00000 -0.00787402 -0.00787402 0.00000 -0.00787402 -0.0157480 -0.00787402
6346.90 -0.00787402 0.00000 0.00000 0.00000 -0.00787402 0.00000 -0.00787402 -0.00787402
6346.90 0.00000 -0.00787402 -0.0157480 -0.0236220 0.00000 0.00787402 0.0157480 0.00000
6369.30 -0.00787402 -0.0157480 -0.00787402 -0.00787402 -0.00787402 0.00787402 -0.00787402 0.00000
6369.30 0.00000 -0.0157480 0.00000 -0.00787402 -0.00787402 0.00000 0.00787402 0.00000
6376.87 -0.00787402 -0.00787402 -0.00787402 0.00000 -0.0157480 -0.00787402 -0.00787402 0.00787402
6376.87 -0.0157480 -0.00787402 0.00787402 -0.00787402 0.00000 -0.0157480 -0.00787402 0.00000
6392.64 -0.00787402 -0.00787402 -0.00787402 -0.00787402 0.0236220 -0.00787402 -0.00787402 -0.0157480
6392.64 0.00000 0.00000 -0.00787402 -0.00787402 -0.00787402 -0.00787402 -0.00787402 -0.00787402
6399.40 -0.0157480 0.00000 -0.00787402 -0.00787402 -0.0157480 -0.00787402 -0.00787402 0.00000
6399.40 -0.00787402 0.00000 -0.0157480 -0.00787402 -0.00787402 0.00000 -0.0157480 -0.00787402
6407.08 -0.00787402 0.00787402 0.00000 0.00000 -0.00787402 0.00000 0.00000 -0.00787402
6407.08 -0.00787402 -0.0157480 -0.0157480 0.00000 0.00000 -0.00787402 0.00000 -0.00787402
6421.90 -0.0157480 0.00787402 -0.0157480 -0.00787402 -0.00787402 0.00000 0.00787402 -0.00787402
6421.90 0.00787402 0.00787402 -0.00787402 0.00000 -0.0157480 0.0157480 -0.00787402 0.00000
6436.87 0.00000 -0.0157480 0.00000 0.00000 -0.0157480 -0.0157480 -0.0157480 -0.0157480
6436.87 0.00000 -0.0157480 -0.0236220 -0.00787402 -0.00787402 0.00787402 -0.0157480 0.00000
6459.61 -0.00787402 -0.00787402 0.00000 -0.0157480 -0.00787402 -0.00787402 -0.00787402 0.00000
6459.61 0.00000 -0.00787402 -0.00787402 -0.0157480 0.00000 0.00000 -0.0157480 -0.00787402
6465.78 0.00000 0.00000 0.00000 -0.00787402 -0.00787402 -0.00787402 0.00787402 -0.00787402
6465.78 -0.0157480 0.00000 0.00000 -0.0157480 -0.00787402 -0.0157480 -0.00787402 -0.00787402
6489.33 -0.00787402 -0.0157480 0.00000 -0.0157480 0.00000 0.00000 -0.0157480 0.00000
6489.33 -0.0236220 -0.00787402 -0.00787402 -0.0157480 0.00000 -0.0157480 -0.00787402 0.00000
6511.96 -0.00787402 -0.00787402 -0.0157480 0.00787402 -0.0157480 -0.0157480 0.00787402 -0.00787402
6511.96 -0.00787402 0.00000 -0.00787402 0.00000 -0.00787402 0.00787402 -0.00787402 -0.0157480
6527.34 -0.0157480 -0.00787402 0.00787402 0.00000 -0.00787402 0.00000 0.00787402 0.00000
6527.34 0.00000 -0.00787402 -0.00787402 0.00000 0.00000 -0.0236220 0.00000 0.00000
6534.38 0.00000 -0.00787402 -0.0157480 -0.00787402 -0.00787402 -0.00787402 -0.00787402 0.00000
6534.38 0.00000 -0.00787402 0.00000 -0.00787402 0.00000 0.0157480 -0.0157480 -0.0236220
6549.48 -0.00787402 -0.00787402 0.00000 -0.00787402 0.00000 -0.0157480 -0.0157480 -0.0157480
6549.48 -0.00787402 -0.00787402 -0.00787402 0.00000 -0.00787402 -0.00787402 0.00787402 0.00787402
6564.28 0.00000 -0.00787402 -0.00787402 0.00000 -0.00787402 -0.00787402 -0.0157480 -0.0157480
6564.28 -0.00787402 -0.00787402 -0.0236220 -0.0236220 -0.00787402 -0.0157480 -0.0236220 -0.00787402
6571.88 0.00000 -0.00787402 -0.00787402 -0.00787402 -0.00787402 0.00787402 -0.00787402 0.00000
6571.88 0.00000 0.00000 -0.00787402 0.00000 -0.00787402 -0.0236220 0.00000 -0.0157480
6586.81 -0.00787402 -0.00787402 0.00000 -0.0157480 -0.0157480 -0.00787402 -0.00787402 -0.00787402
6586.81 0.00000 -0.00787402 -0.00787402 0.00000 -0.0236220 -0.00787402 0.00787402 0.00000
6601.89 -0.0157480 0.00787402 0.00000 -0.00787402 -0.00787402 -0.00787402 0.00000 0.00787402
6601.89 -0.0157480 -0.0157480 0.00787402 -0.00787402 0.00000 -0.0236220 -0.00787402 0.00000
6607.96 -0.0157480 -0.00787402 -0.0157480 -0.00787402 -0.00787402 -0.0157480 -0.0157480 -0.00787402
6607.96 -0.00787402 -0.0157480 -0.0157480 0.00000 -0.00787402 -0.0157480 0.00000 -0.00787402
6624.79 0.00787402 -0.00787402 0.00787402 0.00000 0.00000 0.0157480 -0.0157480 -0.0157480
6624.79 0.00000 -0.00787402 0.00000 -0.00787402 0.00787402 0.00000 0.00000 -0.00787402
6639.40 -0.00787402 -0.00787402 -0.00787402 -0.0157480 -0.00787402 -0.00787402 -0.00787402 0.00000
6639.40 0.00000 -0.00787402 -0.00787402 -0.00787402 -0.00787402 -0.0157480 -0.00787402 0.00787402
6662.38 -0.00787402 -0.0236220 -0.00787402 -0.0157480 0.00000 -0.0236220 0.00000 -0.00787402
6662.38 0.00000 0.00000 0.00000 -0.00787402 -0.00787402 -0.00787402 0.00000 -0.00787402
6684.36 0.00000 0.00000 -0.0157480 -0.00787402 -0.0236220 -0.00787402 0.00787402 0.00787402
6684.36 -0.00787402 -0.00787402 -0.00787402 -0.0157480 -0.0157480 0.00000 -0.00787402 0.00000
6692.37 -0.0157480 0.00000 -0.00787402 0.00000 -0.0157480 -0.00787402 0.00000 -0.0157480
6692.37 -0.00787402 -0.00787402 0.00000 0.00787402 0.00787402 0.00000 -0.00787402 -0.00787402
6699.33 -0.00787402 -0.00787402 0.00000 -0.0157480 0.00787402 0.00000 0.00000 -0.00787402
6699.33 0.00000 0.00000 0.00000 -0.00787402 0.00787402 0.00000 -0.00787402 -0.0157480
6707.95 0.00000 -0.0157480 -0.0157480 0.00000 0.00000 -0.0157480 0.00000 0.00000
6707.95 0.00000 0.00000 0.00000 -0.0157480 0.00000 0.00787402 0.00000 -0.0314961
6714.39 0.00787402 -0.00787402 -0.0157480 -0.0157480 -0.00787402 -0.0157480 -0.00787402 0.00000
6714.39 0.00000 -0.0157480 0.00000 -0.00787402 -0.00787402 -0.0314961 -0.00787402 -0.0236220
6729.47 -0.00787402 0.00787402 0.00000 0.00000 0.00000 -0.00787402 0.00000 -0.00787402
6729.47 0.00000 0.00000 -0.00787402 -0.00787402 0.00000 0.00000 0.00000 0.00000
6745.06 0.00000 -0.0157480 -0.00787402 -0.00787402 -0.00787402 0.00787402 -0.00787402 0.00000
6745.06 -0.00787402 -0.0157480 -0.00787402 -0.0157480 0.00000 -0.0157480 -0.00787402 -0.00787402
6759.87 0.00000 -0.00787402 0.00000 -0.00787402 -0.00787402 -0.00787402 -0.00787402 -0.00787402
6759.87 0.00787402 0.00000 -0.00787402 -0.00787402 0.00787402 -0.00787402 0.00000 -0.00787402
6774.76 -0.00787402 -0.00787402 -0.00787402 0.00000 0.00000 0.00787402 0.00000 -0.0236220
6774.76 -0.00787402 0.00000 -0.00787402 -0.0236220 -0.0157480 -0.00787402 -0.00787402 0.00000
6796.72 0.00787402 0.00787402 -0.0157480 -0.00787402 -0.00787402 -0.0157480 -0.00787402 0.00000
6796.72 0.00000 -0.00787402 -0.00787402 -0.00787402 -0.00787402 -0.00787402 0.00787402 -0.0157480
6804.26 -0.00787402 0.00000 0.00000 -0.00787402 0.00787402 0.00000 0.00000 -0.00787402
6804.26 -0.00787402 0.00787402 0.00000 0.00000 -0.00787402 -0.00787402 0.00000 0.00000
6819.33 0.00000 -0.0157480 0.00000 0.00000 0.00787402 -0.00787402 -0.00787402 0.00000
6819.33 0.00000 -0.00787402 -0.0157480 0.00000 -0.0157480 0.00000 -0.00787402 -0.00787402
6834.29 -0.00787402 0.00000 -0.0157480 -0.00787402 -0.00787402 0.0236220 -0.0157480 -0.0236220
6834.29 0.00000 -0.00787402 0.00000 -0.00787402 0.00000 -0.00787402 -0.0157480 -0.00787402
6841.91 -0.0157480 -0.00787402 0.00000 -0.0236220 0.00000 -0.00787402 0.00000 0.00000
6841.91 -0.0157480 0.00000 -0.0157480 -0.00787402 0.00000 -0.00787402 0.00787402 0.00787402
6849.44 -0.00787402 -0.00787402 -0.00787402 -0.00787402 -0.0157480 0.00000 -0.00787402 0.00000
6849.44 -0.00787402 -0.00787402 -0.0157480 0.00000 0.00787402 0.00787402 -0.0157480 -0.00787402
6871.97 0.00000 -0.00787402 -0.00787402 0.00787402 0.00000 -0.0236220 -0.00787402 -0.00787402
6871.97 -0.00787402 -0.00787402 -0.00787402 -0.00787402 -0.00787402 0.00000 0.0157480 -0.0157480
6879.51 0.00000 0.00787402 -0.00787402 -0.00787402 0.00787402 0.00000 -0.00787402 -0.00787402
6879.51 -0.00787402 0.00000 -0.00787402 -0.0157480 0.00787402 -0.00787402 -0.00787402 0.00787402
6909.33 -0.0157480 -0.00787402 0.00000 -0.0157480 0.00000 0.0236220 -0.0236220 0.00000
6909.33 -0.00787402 -0.00787402 0.00000 0.00000 0.00000 -0.00787402 -0.0157480 -0.00787402
6930.94 -0.00787402 -0.0157480 -0.00787402 -0.0157480 -0.0236220 0.00787402 0.00787402 -0.0157480
6930.94 0.0157480 0.00787402 0.00787402 -0.00787402 0.00000 0.00000 -0.00787402 -0.00787402
6947.09 0.00000 0.00000 -0.00787402 0.00787402 -0.00787402 0.00000 0.00000 0.00000
6947.09 -0.0236220 0.00000 -0.00787402 0.00000 -0.00787402 0.00000 0.00000 0.00000
6954.20 0.00787402 0.00787402 0.00000 0.00000 -0.0157480 -0.0157480 -0.00787402 0.00000
6954.20 0.00000 -0.00787402 0.00000 -0.0157480 -0.0157480 -0.00787402 -0.00787402 0.00000
6969.34 0.00000 -0.00787402 0.00787402 -0.0157480 -0.0157480 0.00000 -0.00787402 0.00787402
6969.34 -0.0157480 0.00000 0.00000 0.00787402 -0.0157480 0.00787402 0.00000 -0.00787402
6992.48 -0.00787402 -0.0157480 0.00000 0.00787402 0.00787402 -0.00787402 0.00000 0.00000
6992.48 -0.0157480 0.00000 0.00787402 0.00000 0.00000 0.00787402 -0.00787402 -0.0157480
6999.36 -0.00787402 -0.0236220 -0.0157480 0.00000 0.00000 -0.00787402 -0.00787402 0.00000
6999.36 -0.00787402 0.00000 -0.0157480 0.00787402 -0.0157480 0.00787402 -0.00787402 -0.00787402
7021.87 -0.0157480 0.00000 -0.0157480 -0.00787402 -0.00787402 0.00000 -0.00787402 -0.0236220
7021.87 0.00787402 -0.0157480 -0.00787402 -0.0157480 -0.00787402 -0.00787402 -0.00787402 0.00000
7034.37 -0.0157480 0.00787402 0.00787402 -0.00787402 0.00000 -0.00787402 0.00787402 -0.00787402
7034.37 0.00000 0.00000 0.00000 0.00000 -0.00787402 -0.0157480 -0.00787402 0.00000
7044.32 -0.0157480 -0.0157480 -0.00787402 -0.00787402 0.00000 0.00000 -0.0157480 0.0157480
7044.32 -0.00787402 -0.0236220 -0.0157480 -0.00787402 0.00000 -0.0157480 0.00000 0.00000
7059.05 -0.00787402 0.00000 0.00000 -0.00787402 -0.00787402 -0.0157480 -0.00787402 0.00000
7059.05 0.00000 -0.0157480 0.00000 0.00000 -0.0157480 0.0157480 0.00000 -0.0157480
7066.74 0.00000 0.00787402 -0.0157480 -0.00787402 -0.0236220 -0.0157480 0.00000 0.00000
7066.74 -0.00787402 -0.0157480 0.00000 0.00000 -0.00787402 0.00000 0.00000 -0.00787402
7081.76 -0.00787402 -0.00787402 -0.00787402 -0.0157480 0.00000 -0.0157480 -0.00787402 -0.0157480
7081.76 0.00000 0.00000 -0.00787402 0.00000 -0.00787402 -0.0236220 -0.0157480 0.00000
7104.29 0.00000 -0.00787402 -0.00787402 -0.0157480 0.00000 0.00000 0.00000 0.0157480
7104.29 -0.0157480 0.00000 0.00000 -0.0157480 -0.0157480 -0.0157480 0.00787402 -0.00787402
7111.97 -0.00787402 0.00000 0.00000 -0.00787402 0.00787402 0.00787402 0.0157480 -0.00787402
7111.97 0.00000 0.00787402 0.00000 0.00000 0.00787402 -0.00787402 -0.0157480 -0.0157480
7124.77 -0.00787402 0.00000 -0.00787402 0.0157480 -0.00787402 0.00000 0.00000 -0.00787402
7124.77 0.00787402 0.00787402 -0.0157480 0.00000 -0.0236220 0.0157480 -0.00787402 0.00787402
7141.81 0.00000 0.00787402 -0.00787402 -0.00787402 0.00000 -0.00787402 -0.00787402 -0.0157480
7141.81 0.00787402 0.00000 0.00000 -0.0236220 0.00000 0.00000 -0.00787402 0.00000
7149.22 -0.00787402 -0.00787402 -0.0157480 0.00000 -0.0314961 -0.0236220 -0.0157480 0.00000
7149.22 -0.00787402 0.00000 -0.00787402 -0.0236220 -0.0236220 -0.00787402 -0.00787402 -0.00787402
7164.40 -0.0236220 -0.00787402 -0.00787402 0.00787402 -0.00787402 -0.00787402 0.00000 -0.00787402
7164.40 -0.0157480 -0.00787402 -0.00787402 -0.00787402 -0.00787402 0.00000 -0.0157480 -0.00787402
7179.73 0.00787402 -0.00787402 0.00000 0.00000 0.00000 0.00000 -0.00787402 0.00000
7179.73 0.00000 -0.00787402 -0.0157480 -0.0157480 -0.00787402 -0.0157480 0.00000 -0.0157480
7201.42 -0.0157480 -0.00787402 -0.00787402 0.00000 0.00000 0.00787402 -0.00787402 0.00787402
7201.42 0.00000 0.00000 -0.0157480 0.00787402 -0.00787402 0.00000 0.00000 -0.00787402
7216.83 0.00000 -0.0157480 -0.00787402 -0.0157480 -0.0236220 -0.0157480 0.00000 -0.0236220
7216.83 0.00787402 0.00000 0.00000 0.00787402 0.00000 -0.00787402 -0.00787402 -0.0157480
7224.88 -0.00787402 0.00000 -0.00787402 -0.00787402 -0.00787402 -0.00787402 -0.00787402 -0.00787402
7224.88 0.00000 -0.0157480 -0.00787402 -0.0314961 0.0157480 0.00000 -0.00787402 0.00787402
7231.79 -0.00787402 0.00787402 0.00000 -0.00787402 -0.00787402 0.00000 -0.00787402 -0.00787402
7231.79 -0.00787402 -0.00787402 0.00000 0.0157480 -0.00787402 -0.00787402 0.00000 -0.00787402
7239.47 -0.00787402 0.00000 -0.00787402 -0.00787402 0.00000 -0.0236220 -0.00787402 -0.00787402
7239.47 0.00787402 -0.00787402 -0.00787402 0.00787402 -0.00787402 0.00000 0.00000 0.00787402
7247.32 -0.0236220 -0.00787402 -0.00787402 -0.00787402 -0.00787402 -0.00787402 0.00000 -0.00787402
7247.32 0.00000 -0.0157480 -0.00787402 -0.00787402 -0.0157480 0.00787402 -0.00787402 -0.00787402
7254.36 -0.00787402 -0.0157480 0.00000 0.00000 0.00787402 0.00000 0.00000 -0.00787402
7254.36 0.00000 0.00787402 0.00000 -0.0157480 -0.00787402 -0.0157480 0.00000 -0.00787402
7269.36 0.00787402 0.00000 -0.00787402 -0.00787402 0.00000 -0.00787402 -0.00787402 -0.0157480
7269.36 -0.00787402 0.00000 0.00000 0.00000 -0.0157480 -0.0157480 -0.00787402 -0.00787402
7277.01 0.00000 0.00000 -0.00787402 0.00000 -0.00787402 -0.00787402 0.00787402 -0.00787402
7277.01 -0.00787402 -0.00787402 0.00000 -0.0157480 -0.0157480 -0.0157480 -0.00787402 -0.00787402
7291.95 -0.00787402 0.00787402 -0.00787402 -0.00787402 -0.00787402 -0.00787402 0.00787402 -0.0157480
7291.95 0.00000 -0.0157480 -0.00787402 0.00787402 0.00787402 0.0157480 -0.0157480 -0.00787402
7299.37 0.00787402 -0.0157480 -0.00787402 -0.00787402 0.00000 -0.00787402 -0.0236220 0.00000
7299.37 0.00000 0.00000 -0.00787402 -0.00787402 0.00000 0.00787402 -0.00787402 -0.0236220
7314.43 -0.00787402 -0.00787402 -0.0157480 -0.00787402 -0.00787402 0.00787402 -0.00787402 -0.00787402
7314.43 -0.00787402 0.00000 -0.00787402 0.00000 0.00000 -0.00787402 0.00000 0.00000
7321.81 -0.0236220 0.00000 0.00787402 -0.00787402 -0.0157480 -0.0236220 -0.0157480 -0.00787402
7321.81 -0.00787402 -0.00787402 0.00000 -0.00787402 0.00787402 -0.00787402 -0.0157480 0.00000
7329.40 -0.00787402 -0.00787402 0.00000 0.00000 0.00000 0.00000 -0.0314961 -0.00787402
7329.40 0.00000 0.00000 -0.0157480 -0.0236220 0.00000 -0.0157480 -0.00787402 -0.00787402
7342.80 0.00000 -0.0157480 -0.00787402 0.00000 -0.0157480 0.00787402 -0.00787402 -0.00787402
7342.80 -0.00787402 -0.00787402 0.00000 0.00000 0.00000 -0.00787402 0.00787402 0.00000
7351.94 0.00787402 -0.00787402 0.00000 -0.00787402 -0.0157480 0.00000 -0.00787402 0.00000
7351.94 0.00787402 0.00000 -0.00787402 0.00000 0.00787402 0.00000 0.00000 0.00000
7366.84 -0.0157480 0.00000 -0.0157480 0.00000 -0.0157480 -0.0314961 -0.00787402 -0.00787402
7366.84 -0.0157480 -0.00787402 -0.0157480 -0.00787402 -0.00787402 0.00000 -0.0236220 0.00000
7374.90 -0.0157480 0.00000 -0.0157480 0.00000 -0.0236220 -0.0157480 0.00000 0.00000
7374.90 -0.00787402 -0.00787402 -0.00787402 0.00000 -0.0157480 -0.00787402 0.00000 0.00000
7381.90 0.00787402 -0.00787402 0.00000 0.00000 -0.00787402 -0.00787402 -0.00787402 -0.00787402
7381.90 0.00000 0.00000 0.00787402 -0.0157480 -0.00787402 -0.00787402 -0.0157480 -0.0157480
7389.06 0.00000 -0.00787402 -0.00787402 0.00000 0.00000 0.00000 0.00000 0.00000
7389.06 -0.0157480 -0.00787402 -0.0157480 0.00000 -0.00787402 -0.0157480 -0.00787402 0.00000
7419.35 -0.00787402 -0.00787402 0.00787402 0.00000 -0.00787402 0.00787402 0.00787402 -0.00787402
7419.35 -0.00787402 0.00000 -0.00787402 0.00787402 -0.0157480 0.00787402 -0.0157480 -0.0157480
7424.72 -0.00787402 -0.0236220 -0.00787402 0.00000 -0.00787402 -0.0314961 -0.0157480 -0.0157480
7424.72 0.00000 0.00787402 -0.00787402 0.00000 -0.0157480 -0.0157480 -0.0157480 -0.00787402
7441.89 -0.00787402 0.00000 -0.00787402 -0.00787402 0.00000 -0.00787402 -0.00787402 -0.00787402
7441.89 0.00787402 0.00000 0.00787402 -0.00787402 -0.0236220 0.00000 0.00000 -0.0157480
7456.80 0.00000 -0.00787402 -0.00787402 -0.0157480 -0.00787402 0.0157480 0.00000 -0.00787402
7456.80 0.00787402 -0.0157480 0.00000 0.00000 0.00787402 0.0157480 0.00000 0.00000
7464.32 0.00000 -0.00787402 0.00000 0.00000 -0.00787402 0.00000 0.00787402 -0.00787402
7464.32 -0.0157480 -0.00787402 0.00000 0.00000 -0.00787402 -0.0157480 -0.00787402 -0.0157480
7479.30 -0.00787402 0.00000 0.00787402 -0.0157480 0.00000 0.00000 0.00000 -0.00787402
7479.30 -0.0157480 -0.00787402 0.00000 -0.0157480 -0.0157480 -0.00787402 0.00000 0.00000
7501.13 -0.00787402 0.00000 0.00787402 -0.0157480 0.00787402 0.0157480 0.00000 -0.00787402
7501.13 -0.00787402 0.00787402 -0.0236220 -0.00787402 0.00000 0.00787402 -0.00787402 0.00000
7531.42 -0.00787402 -0.00787402 -0.00787402 0.00787402 -0.00787402 -0.0157480 -0.0157480 0.00000
7531.42 -0.0157480 0.00000 -0.0157480 0.00787402 0.00000 -0.0236220 0.00000 0.00000
7538.72 0.00000 0.00000 -0.00787402 -0.00787402 0.00787402 0.00787402 -0.0157480 -0.00787402
7538.72 -0.00787402 -0.00787402 -0.00787402 -0.00787402 0.00000 0.00787402 -0.00787402 -0.00787402
7553.87 -0.0157480 -0.00787402 0.00787402 -0.0157480 -0.00787402 0.00000 -0.00787402 0.00000
7553.87 -0.00787402 -0.00787402 0.00000 -0.00787402 0.00000 -0.00787402 0.00787402 0.00000
7562.03 0.00000 -0.00787402 -0.00787402 0.00000 -0.00787402 -0.0236220 0.00787402 -0.00787402
7562.03 0.00787402 -0.0157480 0.00000 -0.00787402 -0.00787402 -0.0157480 -0.00787402 0.00787402
7568.78 -0.00787402 -0.0157480 -0.0236220 -0.00787402 -0.0157480 0.00000 0.00000 -0.0157480
7568.78 0.00000 0.00000 -0.00787402 0.00000 0.00000 0.00787402 -0.00787402 0.00000
7576.26 -0.00787402 -0.0157480 -0.0157480 -0.00787402 0.00787402 0.00787402 -0.0157480 0.00000
7576.26 -0.0157480 0.00000 -0.00787402 -0.0157480 -0.0157480 0.00787402 -0.00787402 0.00000
7583.64 -0.00787402 -0.0157480 -0.0157480 -0.00787402 -0.00787402 0.00000 -0.00787402 -0.0157480
7583.64 0.00000 0.00000 -0.00787402 -0.00787402 -0.00787402 -0.0236220 0.00000 -0.00787402
7592.75 0.00000 -0.0157480 0.00000 0.00787402 -0.00787402 -0.0236220 0.00787402 0.00787402
7592.75 -0.00787402 0.00000 -0.0157480 0.0157480 0.00000 0.00000 -0.00787402 -0.00787402
7597.81 -0.00787402 -0.00787402 -0.0157480 -0.0157480 -0.00787402 -0.00787402 -0.0157480 0.00000
7597.81 -0.00787402 -0.0157480 0.00000 -0.00787402 -0.0157480 0.00000 0.00000 -0.00787402
7606.99 -0.00787402 0.00000 -0.00787402 -0.0157480 -0.00787402 0.00000 -0.0157480 0.00000
7606.99 0.00000 -0.00787402 -0.00787402 -0.00787402 0.00000 -0.0236220 0.00000 -0.00787402
7614.37 0.00000 0.00000 -0.00787402 0.00000 -0.00787402 -0.00787402 -0.00787402 0.00787402
7614.37 -0.00787402 -0.0157480 0.00000 -0.00787402 0.00000 -0.00787402 -0.0157480 -0.00787402
7621.86 0.00000 -0.00787402 0.00000 -0.00787402 -0.0157480 0.00000 -0.0157480 0.00000
7621.86 0.00000 -0.0157480 0.00000 0.0157480 -0.00787402 0.0236220 0.00000 0.00787402
7630.09 -0.00787402 0.00787402 0.00000 0.00000 0.00000 0.00787402 -0.00787402 -0.00787402
7630.09 0.00000 0.00000 -0.0157480 -0.00787402 0.00787402 0.00787402 -0.0157480 0.00000
7652.20 0.00000 0.00000 -0.00787402 -0.0236220 -0.0236220 -0.0236220 -0.00787402 -0.0157480
7652.20 0.00000 -0.00787402 0.00000 -0.00787402 0.00000 -0.00787402 -0.00787402 0.00000
7660.06 -0.0236220 0.00000 -0.0157480 0.00000 -0.00787402 -0.00787402 -0.0157480 -0.0157480
7660.06 -0.00787402 0.00000 -0.00787402 0.00000 -0.00787402 -0.0157480 -0.0157480 -0.00787402
7680.27 -0.00787402 0.00000 0.00787402 0.00000 0.00000 0.00787402 0.00000 -0.00787402
7680.27 -0.0157480 -0.00787402 0.00787402 0.00000 0.00000 0.00787402 0.00000 0.00000
7689.17 0.00000 -0.00787402 -0.00787402 -0.00787402 0.00787402 0.00787402 -0.00787402 -0.00787402
7689.17 -0.00787402 0.00000 -0.00787402 -0.00787402 0.00000 -0.0157480 -0.00787402 -0.00787402
7697.05 0.00000 0.00000 -0.00787402 -0.0157480 -0.00787402 0.0157480 -0.00787402 -0.00787402
7697.05 0.00000 -0.0157480 0.00000 -0.0236220 -0.00787402 -0.0157480 0.00000 0.00000
7711.51 0.00000 0.00000 -0.00787402 0.00000 -0.0157480 -0.00787402 -0.00787402 0.00000
7711.51 0.00000 0.00000 0.00000 0.0157480 0.00000 -0.00787402 -0.0157480 -0.00787402
7719.07 0.00787402 0.00000 -0.00787402 0.00000 -0.00787402 -0.00787402 0.00787402 0.00787402
7719.07 -0.00787402 -0.00787402 -0.0157480 -0.0157480 -0.00787402 -0.00787402 -0.00787402 -0.00787402
7728.02 -0.00787402 0.00000 -0.0236220 -0.00787402 0.00000 -0.0157480 -0.00787402 -0.00787402
7728.02 -0.00787402 0.00787402 -0.00787402 -0.0157480 -0.0236220 0.00000 0.00000 0.00000
7734.39 0.00000 0.00000 0.00000 -0.00787402 -0.0157480 0.00000 -0.0157480 0.00000
7734.39 0.00787402 -0.00787402 -0.00787402 0.00000 -0.00787402 0.00000 -0.00787402 -0.00787402
7749.39 -0.0157480 -0.0157480 0.00000 0.00787402 0.00000 0.00787402 -0.00787402 -0.00787402
7749.39 -0.0157480 0.00787402 -0.0236220 -0.0157480 0.0157480 -0.0157480 0.00000 0.00000
7756.45 -0.00787402 0.00000 -0.00787402 0.00000 0.00000 -0.0157480 -0.0157480 0.00000
7756.45 -0.00787402 -0.0157480 -0.0157480 -0.00787402 -0.00787402 0.00787402 0.00787402 0.00000
7778.04 -0.0157480 -0.0157480 0.00000 0.00000 0.00000 -0.00787402 -0.0157480 -0.0236220
7778.04 -0.00787402 -0.00787402 -0.00787402 0.00787402 -0.0157480 -0.00787402 -0.00787402 -0.0157480
7788.83 -0.00787402 -0.00787402 -0.00787402 -0.00787402 -0.00787402 -0.00787402 0.00000 -0.0157480
7788.83 0.00787402 0.0157480 -0.0157480 -0.0157480 -0.0157480 -0.0157480 -0.0157480 0.00000
7801.20 0.00000 -0.00787402 0.00787402 -0.00787402 0.00000 -0.0157480 -0.00787402 0.00787402
7801.20 -0.00787402 -0.00787402 0.00000 -0.00787402 0.00000 -0.00787402 0.00787402 -0.00787402
7808.43 -0.00787402 -0.0157480 -0.00787402 0.00000 -0.00787402 0.00787402 0.00787402 0.00000
7808.43 -0.00787402 0.00000 -0.00787402 -0.0157480 0.00000 -0.0157480 -0.00787402 -0.00787402
7824.51 0.00000 0.00787402 -0.00787402 0.00787402 -0.0157480 0.00000 0.00787402 -0.00787402
7824.51 0.00787402 -0.0236220 -0.0236220 0.00000 0.00787402 0.00000 -0.0236220 -0.00787402
7831.90 -0.0157480 -0.00787402 -0.0157480 0.00000 0.00000 -0.00787402 0.00000 0.00000
7831.90 -0.0157480 -0.00787402 0.00000 0.00000 -0.00787402 0.00000 -0.0157480 -0.00787402
7847.33 0.00000 -0.00787402 -0.0157480 -0.0157480 -0.00787402 -0.0157480 -0.0157480 0.00787402
7847.33 -0.00787402 -0.00787402 -0.00787402 -0.0157480 -0.0157480 0.00000 0.00000 -0.00787402
7854.21 -0.00787402 -0.00787402 -0.0157480 0.00000 0.00000 0.00787402 -0.0236220 -0.00787402
7854.21 -0.00787402 0.00000 0.00787402 0.00000 0.0157480 -0.00787402 -0.00787402 0.00000
7861.69 0.00787402 -0.00787402 0.00000 0.00000 -0.0157480 0.00000 -0.0236220 -0.0236220
7861.69 -0.0157480 -0.0236220 -0.00787402 -0.00787402 0.00000 -0.0157480 0.00000 0.00000
7870.56 0.00000 0.00787402 -0.0157480 -0.0157480 -0.00787402 -0.00787402 -0.00787402 -0.00787402
7870.56 -0.0157480 -0.00787402 -0.0157480 0.00000 0.00000 0.00787402 0.0157480 0.00000
7884.30 0.00000 0.00787402 -0.0157480 0.00000 -0.0157480 0.00000 0.0157480 0.00000
7884.30 -0.00787402 0.00787402 0.00000 -0.00787402 -0.00787402 0.00000 -0.00787402 0.00000
7893.96 -0.00787402 -0.00787402 0.00000 0.00000 -0.0157480 0.00000 -0.00787402 0.00000
7893.96 -0.00787402 -0.00787402 -0.00787402 0.00000 -0.0157480 0.00000 -0.00787402 0.00000
7914.77 -0.00787402 -0.00787402 -0.0157480 -0.00787402 0.00787402 -0.0157480 0.00787402 0.00787402
7914.77 -0.00787402 -0.00787402 -0.00787402 -0.00787402 -0.00787402 0.0157480 -0.00787402 0.00787402
7921.61 0.00000 -0.00787402 -0.00787402 0.00000 -0.00787402 -0.00787402 0.0157480 -0.00787402
7921.61 -0.00787402 -0.0157480 -0.00787402 0.00787402 0.00000 -0.00787402 0.00787402 0.00000
7929.05 -0.00787402 -0.00787402 0.00787402 -0.00787402 0.00000 0.00787402 -0.00787402 -0.0157480
7929.05 -0.00787402 0.00000 0.00000 -0.0157480 0.00000 -0.00787402 -0.00787402 0.00000
7936.62 -0.0157480 -0.00787402 -0.00787402 -0.00787402 0.00000 0.00000 -0.00787402 0.00000
7936.62 -0.0157480 0.00787402 0.00000 -0.0157480 0.00000 -0.00787402 0.00787402 0.00000
7960.69 0.00787402 0.00000 -0.00787402 -0.0157480 0.00000 -0.0236220 0.00787402 -0.00787402
7960.69 0.0157480 -0.00787402 -0.0157480 0.00787402 -0.00787402 0.00000 -0.0157480 -0.00787402
7974.16 -0.0157480 0.00000 -0.0157480 -0.00787402 -0.00787402 -0.00787402 -0.0157480 0.00787402
7974.16 -0.00787402 -0.00787402 -0.00787402 -0.00787402 0.00000 0.00787402 -0.00787402 0.00000
7981.81 0.00000 -0.00787402 0.00000 0.00787402 0.00000 -0.0314961 -0.00787402 0.00787402
7981.81 -0.0157480 -0.00787402 -0.00787402 0.00000 -0.00787402 0.00000 -0.0157480 -0.00787402
7987.43 -0.00787402 -0.0157480 -0.00787402 -0.0157480 -0.0157480 0.00000 -0.00787402 -0.00787402
7987.43 0.00000 -0.00787402 -0.00787402 -0.0157480 -0.0236220 -0.0157480 -0.00787402 0.00000
7997.04 -0.00787402 0.00000 -0.00787402 -0.00787402 -0.00787402 0.00000 0.00000 0.00000
7997.04 -0.00787402 0.00000 -0.0157480 -0.00787402 -0.00787402 0.00000 -0.00787402 -0.00787402
8019.01 -0.00787402 0.00000 0.00000 0.00000 0.00000 0.00000 0.00000 0.00000
8019.01 0.00000 0.00787402 0.00787402 0.00000 0.00000 0.00787402 0.00000 -0.00787402
8051.82 -0.00787402 -0.0157480 0.00787402 0.00000 0.00000 0.00000 0.00000 -0.0157480
8051.82 0.00000 -0.0157480 -0.0157480 -0.00787402 -0.00787402 -0.0157480 0.00787402 -0.0236220
8056.82 -0.00787402 -0.00787402 -0.00787402 -0.00787402 -0.0157480 -0.00787402 0.00787402 -0.00787402
8056.82 0.00000 0.00000 -0.00787402 0.00000 -0.00787402 0.00000 -0.0157480 -0.00787402
8071.62 0.00787402 -0.00787402 0.00787402 0.00787402 0.00000 -0.00787402 -0.0157480 0.00000
8071.62 0.00000 -0.00787402 0.00787402 0.00000 -0.0157480 0.00787402 -0.00787402 -0.00787402
8086.97 0.00000 -0.0157480 0.00787402 -0.0236220 0.00000 -0.00787402 0.00000 -0.00787402
8086.97 -0.0157480 0.00787402 0.00000 0.00000 0.00787402 -0.00787402 0.00000 -0.00787402
8094.64 0.00000 -0.0157480 -0.00787402 -0.00787402 -0.0157480 0.00787402 -0.0157480 -0.0157480
8094.64 0.00787402 -0.0157480 -0.00787402 -0.00787402 -0.00787402 0.00000 -0.0157480 -0.00787402
8105.63 -0.0157480 -0.0157480 -0.00787402 0.00000 0.00000 0.00787402 -0.00787402 -0.00787402
8105.63 -0.00787402 -0.0157480 -0.00787402 0.00000 -0.0157480 -0.00787402 0.00787402 0.00000
8109.38 0.00000 -0.00787402 0.00000 -0.00787402 0.00787402 0.00000 -0.0157480 -0.0157480
8109.38 -0.00787402 0.00000 0.00000 0.00000 -0.00787402 -0.0157480 -0.0157480 -0.0157480
8116.88 0.00000 0.00000 0.00000 -0.00787402 -0.0157480 -0.0157480 -0.0157480 -0.00787402
8116.88 0.00000 -0.0157480 0.00000 -0.0236220 -0.0157480 -0.00787402 0.00787402 -0.00787402
8124.47 -0.0157480 0.00000 -0.0157480 -0.00787402 -0.00787402 -0.0157480 -0.00787402 -0.00787402
8124.47 -0.0157480 0.00000 -0.0236220 -0.0236220 -0.00787402 -0.00787402 0.00787402 0.00787402
8131.32 -0.0157480 -0.00787402 -0.0157480 -0.00787402 -0.00787402 -0.0157480 0.00000 -0.00787402
8131.32 0.00787402 0.00787402 0.00787402 0.00787402 0.00000 0.00787402 -0.00787402 -0.00787402
8146.85 -0.00787402 0.00000 -0.0157480 -0.00787402 -0.0236220 -0.00787402 0.00000 0.00000
8146.85 -0.00787402 -0.00787402 0.00787402 0.00000 0.00000 0.00000 0.00000 -0.00787402
8151.81 -0.00787402 -0.00787402 0.00000 0.00000 -0.00787402 -0.0157480 -0.00787402 -0.00787402
8154.98 -0.00787402 -0.0157480 -0.00787402 0.00000 -0.00787402 0.00000 -0.00787402 0.00000
8162.23 -0.00787402 -0.00787402 -0.00787402 -0.00787402 -0.0157480 0.00787402 0.00000 0.00000
8162.23 0.00000 -0.00787402 -0.00787402 0.00000 -0.00787402 -0.0157480 -0.00787402 0.00000
8169.37 -0.00787402 -0.00787402 0.00000 0.00000 -0.00787402 0.00787402 0.00000 -0.00787402
8169.37 0.00000 0.00000 -0.00787402 -0.00787402 0.00000 -0.00787402 0.00787402 -0.00787402
8184.01 -0.00787402 -0.00787402 0.0157480 0.00000 -0.0157480 -0.0157480 -0.00787402 -0.00787402
8184.01 -0.00787402 -0.00787402 -0.00787402 -0.0157480 0.00000 -0.00787402 -0.0157480 0.0157480
8192.39 -0.00787402 -0.0157480 0.00787402 0.00787402 -0.00787402 0.00000 0.00000 -0.00787402
8192.39 0.00000 -0.00787402 -0.0157480 0.00787402 0.00000 -0.0157480 -0.0236220 0.00000
8213.99 0.00000 0.00000 -0.0157480 -0.0157480 -0.00787402 0.00000 0.00000 -0.0157480
8213.99 0.00000 0.00000 -0.0157480 0.00000 0.00000 0.00787402 -0.0157480 -0.00787402
8221.54 -0.0157480 -0.0157480 -0.00787402 -0.00787402 -0.00787402 -0.00787402 0.00787402 0.00000
8221.54 -0.0157480 -0.00787402 -0.0157480 -0.00787402 -0.0157480 0.00000 -0.00787402 -0.00787402
8236.29 -0.00787402 -0.0314961 -0.00787402 0.00787402 0.00000 -0.00787402 -0.00787402 -0.00787402
8236.29 0.00787402 -0.00787402 -0.00787402 -0.0157480 -0.00787402 -0.0157480 0.00000 -0.00787402
8243.87 0.00000 -0.00787402 0.00000 -0.00787402 -0.0157480 -0.00787402 0.00000 -0.00787402
8243.87 -0.00787402 0.0157480 0.00000 0.00787402 0.00000 0.0157480 -0.0157480 -0.0157480
8260.17 0.00000 0.00000 -0.0157480 0.00000 0.00000 -0.00787402 -0.0157480 0.00000
8260.17 -0.00787402 -0.00787402 -0.0236220 0.00000 -0.0157480 -0.00787402 -0.0157480 -0.00787402
8275.11 -0.00787402 0.00787402 -0.00787402 0.00000 -0.00787402 0.00000 -0.00787402 0.00000
8275.11 0.00000 -0.0157480 0.00787402 0.00000 0.00000 -0.0157480 0.00787402 0.00000
8296.77 -0.0157480 0.00000 -0.00787402 -0.00787402 0.00000 0.0157480 -0.00787402 0.00000
8296.77 0.00000 0.00000 0.00000 -0.00787402 0.00000 0.0157480 0.00000 -0.00787402
8311.92 -0.00787402 -0.00787402 0.00000 -0.00787402 -0.0157480 -0.00787402 0.0157480 -0.00787402
8311.92 -0.0157480 0.00000 -0.0157480 -0.0157480 0.00000 -0.00787402 -0.00787402 -0.00787402
8318.99 0.00000 -0.0236220 -0.0157480 0.00000 -0.00787402 0.00787402 0.00000 0.00000
8318.99 -0.0157480 0.00000 -0.00787402 0.00000 0.00000 0.00000 0.00000 0.00000
8326.84 0.00787402 0.00000 -0.0157480 -0.00787402 0.00000 -0.0157480 -0.0236220 -0.00787402
8326.84 0.00000 -0.0157480 0.00000 -0.00787402 -0.0157480 -0.00787402 -0.00787402 0.00000
8334.38 -0.00787402 0.00787402 -0.00787402 -0.0157480 -0.00787402 -0.0236220 0.00000 -0.00787402
8334.38 -0.00787402 0.00787402 0.00787402 -0.00787402 -0.0157480 -0.00787402 -0.00787402 -0.00787402
