14.4953 0.00000 -0.0236220 -0.00787402 0.00000 0.00000 0.0157480 0.00000 0.00787402
14.4953 0.00000 0.0157480 0.00787402 0.00000 -0.00787402 0.00000 0.0236220 0.0157480
22.5888 0.00000 0.0314961 0.00787402 -0.0236220 0.00787402 0.00000 0.00000 0.0236220
22.5888 0.00787402 -0.0393701 -0.00787402 -0.00787402 -0.00787402 -0.00787402 -0.00787402 0.00787402
29.5853 0.0472441 -0.0236220 0.00000 0.00000 -0.00787402 -0.00787402 0.0157480 0.00000
29.5853 -0.0157480 -0.0393701 0.00787402 -0.00787402 -0.0157480 0.00000 0.00787402 0.0236220
52.1193 0.0314961 0.0236220 0.00000 0.00000 -0.00787402 -0.0236220 -0.0236220 -0.0236220
52.1193 -0.0472441 -0.00787402 -0.00787402 -0.00787402 0.00787402 0.00000 -0.00787402 0.00787402
59.6390 0.0472441 0.0393701 -0.00787402 0.00787402 0.00000 -0.00787402 0.0157480 0.0314961
59.6390 -0.0393701 -0.0157480 -0.00787402 -0.00787402 0.00000 -0.0157480 0.0157480 0.00787402
74.5017 -0.0787402 -0.0551181 -0.00787402 -0.0157480 -0.0157480 -0.0157480 -0.0314961 -0.0944882
74.5017 0.0314961 0.0157480 -0.00787402 -0.0157480 -0.0157480 -0.00787402 -0.0236220 -0.0314961
97.0437 -0.0157480 0.0472441 -0.0157480 -0.0236220 -0.0157480 -0.0236220 -0.0629921 -0.125984
97.0437 -0.0944882 -0.0157480 0.00787402 -0.00787402 0.00787402 -0.0236220 -0.0629921 -0.0866142
119.512 -0.00787402 -0.0393701 0.00000 0.00000 -0.00787402 0.0157480 0.0157480 0.0393701
119.512 -0.0314961 -0.0157480 -0.0157480 -0.0157480 0.00000 -0.0157480 -0.0551181 -0.102362
141.753 0.0551181 0.0472441 -0.00787402 -0.0157480 -0.0157480 -0.0236220 0.00000 0.0472441
141.753 -0.00787402 0.0157480 0.00000 0.00000 0.00000 0.00000 -0.0157480 -0.0472441
149.554 -0.0472441 -0.102362 -0.0393701 0.00000 -0.00787402 -0.0314961 -0.0236220 -0.0157480
149.554 0.0393701 0.00787402 -0.00787402 0.00787402 -0.0236220 -0.0157480 -0.00787402 -0.00787402
172.046 0.0236220 0.0787402 0.0236220 0.00000 0.00787402 0.0157480 0.0236220 0.0393701
172.046 0.00787402 -0.0551181 0.00000 -0.00787402 -0.00787402 0.00000 0.0314961 0.0629921
202.020 -0.0551181 -0.00787402 0.00787402 0.00787402 -0.0157480 0.00000 -0.00787402 -0.00787402
202.020 0.0157480 0.0314961 0.00000 -0.0157480 0.00787402 0.00000 -0.00787402 0.00787402
217.048 -0.0472441 -0.0314961 0.00787402 0.00000 -0.00787402 -0.00787402 0.00000 0.00000
217.048 0.0708661 0.0472441 -0.0236220 -0.0157480 0.00000 0.00000 -0.0157480 -0.00787402
224.994 -0.0236220 0.0314961 -0.0236220 -0.0236220 -0.0157480 -0.00787402 -0.00787402 0.0157480
224.994 -0.0472441 -0.00787402 0.00000 0.00787402 -0.00787402 0.00000 0.00000 0.00787402
247.120 0.0944882 0.00000 -0.00787402 0.00000 0.00000 -0.00787402 0.00000 0.0157480
247.120 -0.0551181 -0.0157480 -0.00787402 -0.00787402 -0.0157480 -0.0157480 -0.0393701 -0.0314961
261.990 0.00787402 0.0157480 0.00787402 0.00000 0.00787402 0.0236220 0.00000 0.00787402
261.990 0.0866142 0.0551181 -0.0157480 -0.00787402 -0.0157480 0.0157480 0.0236220 0.0708661
269.524 0.00000 -0.0157480 -0.0157480 -0.00787402 0.00000 -0.0157480 0.00000 -0.00787402
269.524 -0.133858 -0.0551181 -0.00787402 0.00000 -0.00787402 -0.00787402 0.00000 -0.0472441
292.514 0.0236220 0.0157480 0.00787402 -0.0157480 0.00000 0.00000 -0.00787402 -0.0157480
292.514 -0.0393701 -0.00787402 -0.0157480 -0.0236220 0.00000 -0.00787402 0.00787402 0.0157480
306.667 -0.0236220 -0.0157480 -0.00787402 -0.0157480 -0.0157480 0.00000 -0.00787402 -0.0393701
306.667 0.00000 -0.0157480 -0.0157480 -0.00787402 0.00000 0.00000 0.00000 -0.0157480
322.237 -0.0393701 -0.00787402 -0.00787402 0.00000 0.00000 0.00000 -0.0157480 -0.0866142
322.237 0.149606 0.0551181 -0.00787402 -0.00787402 -0.00787402 -0.0314961 0.00787402 0.0393701
336.685 0.0629921 0.0472441 0.00000 0.00787402 -0.0157480 -0.0157480 -0.0236220 -0.00787402
336.685 -0.181102 -0.0629921 -0.00787402 -0.0157480 -0.0314961 -0.0314961 -0.0236220 -0.0236220
352.002 -0.0314961 -0.0314961 -0.0236220 0.00000 -0.00787402 -0.00787402 0.0157480 0.0314961
352.002 0.0708661 0.0393701 0.00787402 0.00000 0.00000 -0.00787402 -0.00787402 -0.0236220
374.657 -0.0314961 -0.0472441 0.00787402 0.00000 0.00787402 0.00000 0.00000 0.0472441
374.657 -0.0472441 -0.00787402 -0.00787402 -0.0157480 -0.0157480 -0.0157480 -0.0314961 -0.0551181
389.713 -0.0393701 0.00787402 0.00787402 -0.00787402 0.00000 -0.00787402 -0.0157480 -0.0236220
389.713 -0.0157480 -0.0157480 -0.0157480 -0.00787402 -0.00787402 0.00000 -0.0157480 -0.0708661
397.061 0.0157480 0.00000 -0.0157480 -0.00787402 0.00787402 0.00787402 -0.00787402 0.0314961
397.061 0.0314961 -0.00787402 -0.00787402 -0.00787402 0.00787402 0.0157480 0.0236220 0.0472441
427.103 0.0708661 0.0551181 0.00000 -0.00787402 0.00000 0.00000 0.00000 0.0551181
427.103 0.00000 0.00000 0.00000 -0.00787402 -0.0157480 -0.00787402 -0.00787402 0.0236220
449.505 -0.0708661 -0.0472441 -0.0157480 -0.0157480 -0.0157480 -0.0157480 0.00787402 -0.0236220
449.505 -0.0236220 -0.0472441 -0.0157480 0.00787402 0.0157480 0.00000 0.00787402 0.00787402
474.251 -0.00787402 -0.0157480 -0.00787402 0.00787402 -0.0157480 -0.0157480 -0.0236220 -0.0708661
474.251 -0.0314961 0.0629921 -0.00787402 -0.0236220 -0.0236220 -0.0236220 -0.0157480 0.0393701
479.643 0.102362 -0.0157480 0.00000 0.00787402 -0.0157480 -0.0157480 -0.0314961 -0.0314961
479.643 -0.0944882 0.00787402 0.00000 -0.00787402 -0.00787402 0.00000 -0.00787402 -0.0157480
492.760 -0.0157480 -0.0157480 -0.0157480 -0.00787402 -0.0157480 -0.0236220 -0.0157480 -0.0157480
492.760 0.0236220 -0.0157480 -0.00787402 -0.0157480 -0.0157480 -0.0157480 -0.00787402 0.0551181
502.053 0.0157480 0.00000 0.00787402 -0.0236220 0.00000 0.0157480 0.00787402 0.0157480
502.053 -0.133858 -0.0708661 -0.00787402 0.00787402 0.0157480 0.00000 0.00787402 -0.0157480
509.581 0.0157480 0.0472441 0.00000 -0.00787402 -0.0236220 -0.0314961 -0.0472441 0.00787402
509.581 -0.125984 -0.0787402 0.00000 -0.00787402 -0.00787402 -0.0157480 -0.0157480 -0.0708661
522.214 0.0866142 0.0157480 -0.00787402 -0.00787402 0.00000 -0.00787402 0.00787402 0.0157480
522.214 -0.0314961 -0.00787402 -0.00787402 0.00000 -0.00787402 0.0236220 0.0236220 -0.00787402
532.058 -0.0944882 -0.0236220 -0.00787402 0.00787402 -0.0157480 0.00000 0.0157480 0.00787402
532.058 0.0866142 0.0472441 0.00000 -0.0157480 -0.0157480 -0.0157480 -0.0236220 -0.0157480
546.967 -0.0236220 -0.0157480 -0.00787402 0.00787402 0.00787402 0.00787402 0.00787402 0.0314961
546.967 0.102362 0.0314961 -0.00787402 0.00000 -0.0236220 -0.0157480 -0.00787402 0.0314961
554.826 -0.251969 -0.0708661 -0.0236220 -0.0157480 0.00000 -0.0236220 -0.0866142 -0.173228
554.826 -0.0157480 0.0157480 -0.00787402 0.0157480 -0.00787402 -0.00787402 -0.0314961 0.00787402
569.612 0.0157480 -0.00787402 -0.00787402 -0.00787402 0.00000 0.00000 -0.00787402 -0.0551181
569.612 -0.0787402 -0.0393701 -0.00787402 0.00000 0.00000 0.00000 0.00000 -0.0314961
575.217 0.00787402 0.0157480 0.00787402 -0.00787402 -0.00787402 -0.00787402 0.0314961 0.0314961
575.217 0.118110 -0.0157480 -0.00787402 -0.0157480 0.00000 0.00000 -0.00787402 -0.00787402
584.556 -0.0314961 -0.0314961 -0.0157480 -0.0157480 -0.0236220 -0.0236220 -0.0551181 -0.0472441
584.556 0.0236220 0.00000 0.00787402 -0.00787402 0.00000 -0.0157480 -0.0157480 -0.0157480
607.515 0.0157480 -0.0157480 -0.00787402 -0.00787402 0.00000 -0.0157480 0.00787402 0.0236220
607.515 -0.0551181 -0.0393701 -0.0157480 -0.0157480 0.00787402 0.00787402 -0.00787402 -0.00787402
614.515 0.00000 0.0157480 0.00000 -0.00787402 0.00000 0.00000 -0.00787402 0.00787402
614.515 0.00000 -0.0472441 -0.0314961 0.00000 0.00000 0.00000 0.0157480 0.00787402
629.472 0.0393701 0.00000 0.00000 0.00000 -0.0157480 -0.00787402 0.0157480 0.0708661
629.472 -0.0236220 -0.0157480 -0.00787402 0.00000 -0.0236220 -0.0236220 -0.0393701 -0.118110
637.262 0.00000 0.00000 0.00000 -0.0157480 -0.00787402 -0.0157480 -0.0393701 -0.0551181
637.262 -0.0551181 -0.00787402 0.0157480 0.00787402 0.00787402 0.00787402 0.0157480 0.00787402
667.105 0.0866142 0.00000 0.00000 -0.00787402 -0.00787402 0.00000 0.0236220 0.0551181
667.105 -0.0787402 -0.00787402 -0.0157480 -0.0314961 -0.0236220 -0.0157480 -0.0314961 -0.0708661
681.976 0.00787402 0.0157480 -0.0157480 0.00787402 -0.00787402 0.00000 0.00000 0.00787402
681.976 0.00000 -0.00787402 -0.00787402 -0.00787402 -0.0157480 -0.00787402 -0.0157480 -0.00787402
705.059 0.0236220 0.00787402 0.00787402 -0.00787402 -0.0236220 -0.0157480 0.00000 -0.0157480
705.059 -0.00787402 0.00787402 0.00787402 -0.00787402 -0.00787402 0.00787402 -0.00787402 0.00000
717.083 -0.0787402 -0.0236220 0.00000 -0.0157480 0.00000 0.00787402 0.0236220 0.0157480
717.083 -0.0314961 -0.0236220 -0.0157480 -0.00787402 -0.00787402 -0.00787402 -0.0157480 -0.0314961
726.699 0.0393701 0.00787402 0.00000 -0.00787402 0.00787402 0.00000 0.00787402 0.00000
726.699 0.00787402 0.0157480 -0.00787402 -0.0157480 -0.0157480 -0.00787402 0.0314961 0.0629921
749.537 -0.141732 -0.0393701 -0.0236220 -0.0157480 -0.0157480 -0.0236220 -0.0393701 -0.0472441
749.537 0.00000 -0.00787402 -0.00787402 -0.00787402 -0.00787402 -0.00787402 -0.0472441 -0.0708661
764.549 -0.0157480 -0.0393701 -0.00787402 -0.00787402 0.00000 -0.00787402 0.00000 0.00787402
764.549 -0.0157480 -0.0472441 0.00000 -0.00787402 -0.00787402 0.00787402 0.0314961 0.0472441
772.336 0.0393701 0.0393701 0.00000 0.00000 -0.00787402 0.00787402 0.0157480 0.00787402
772.336 0.0157480 -0.00787402 0.00787402 0.00000 -0.0157480 -0.00787402 0.00000 -0.00787402
802.033 0.0629921 0.0236220 -0.00787402 0.00000 -0.00787402 0.00000 0.0393701 0.0866142
802.033 -0.118110 -0.0551181 -0.0314961 -0.0236220 -0.00787402 -0.0314961 -0.0708661 -0.157480
817.011 0.00000 -0.0157480 0.00000 -0.00787402 -0.00787402 -0.00787402 0.00000 0.00000
817.011 0.0393701 0.00787402 0.00787402 -0.0157480 0.00787402 0.00787402 0.0157480 0.0157480
846.887 0.0236220 0.0157480 0.00000 -0.00787402 0.00000 0.00787402 -0.00787402 -0.00787402
846.887 0.0472441 0.0236220 0.00000 -0.00787402 -0.00787402 0.00000 0.00000 0.0314961
852.902 -0.0551181 -0.0551181 -0.0157480 0.00000 -0.0157480 -0.0157480 -0.0629921 -0.102362
852.902 0.0472441 0.0236220 -0.00787402 -0.00787402 -0.0157480 0.00000 0.0472441 0.0708661
869.512 0.0236220 0.00000 -0.0157480 0.00000 0.0157480 0.0157480 0.00787402 0.00000
869.512 0.0629921 0.00787402 0.00000 0.00787402 0.00787402 0.00000 -0.0157480 -0.00787402
876.978 0.0157480 0.00000 -0.00787402 -0.0157480 -0.00787402 -0.0157480 -0.0157480 0.0157480
876.978 -0.110236 -0.00787402 -0.0236220 -0.00787402 -0.0157480 -0.0236220 -0.0393701 -0.0708661
882.402 0.0236220 -0.0551181 -0.0314961 -0.0236220 -0.0236220 0.00000 0.0157480 0.0551181
882.402 -0.00787402 0.00787402 -0.00787402 -0.0157480 0.00000 0.00787402 -0.0236220 -0.0236220
892.583 0.0157480 0.00787402 0.00000 0.00000 0.00000 0.00787402 -0.00787402 -0.0236220
892.583 0.0787402 0.00787402 -0.00787402 0.00000 -0.00787402 0.00000 0.0393701 0.0866142
904.931 0.0314961 0.00787402 -0.00787402 -0.00787402 -0.00787402 0.00000 0.0472441 0.0708661
904.931 0.0236220 -0.00787402 0.00787402 0.00000 -0.00787402 0.00787402 0.0157480 0.00787402
911.850 -0.0551181 -0.00787402 0.00000 0.00787402 -0.00787402 -0.00787402 0.00000 0.00787402
911.850 0.00787402 -0.00787402 -0.0157480 -0.00787402 -0.00787402 -0.0157480 0.00000 0.0236220
929.552 0.0157480 -0.00787402 -0.00787402 0.00000 -0.00787402 -0.00787402 0.00000 -0.00787402
929.552 -0.0314961 0.00000 -0.00787402 -0.00787402 -0.0157480 0.00787402 0.0157480 0.0157480
936.935 0.0236220 -0.00787402 -0.00787402 -0.00787402 -0.00787402 -0.00787402 -0.0157480 -0.00787402
936.935 -0.0393701 -0.0157480 0.00787402 -0.00787402 0.00000 0.00000 -0.0157480 -0.0236220
952.014 0.133858 0.0472441 0.00000 -0.00787402 0.00000 0.00787402 0.0157480 0.0157480
952.014 -0.173228 -0.0393701 0.00000 0.00000 0.00787402 -0.00787402 -0.0157480 -0.0629921
967.026 -0.0236220 -0.0157480 0.00000 -0.00787402 -0.00787402 0.00000 0.0157480 0.0236220
967.026 0.0472441 0.00787402 0.00000 0.00787402 0.00000 0.00000 0.00787402 0.0314961
990.020 0.0314961 0.00000 0.00787402 0.00000 0.00000 0.00787402 0.00000 -0.0157480
990.020 -0.0472441 -0.0314961 -0.00787402 -0.00787402 -0.00787402 -0.00787402 0.00787402 0.00000
997.044 -0.0314961 -0.00787402 -0.00787402 0.00787402 0.00000 0.00000 -0.00787402 -0.0236220
997.044 0.0551181 0.00787402 -0.0157480 0.00000 -0.0157480 -0.0157480 -0.0236220 -0.0157480
1012.14 -0.0944882 -0.00787402 0.00000 0.00787402 0.00000 0.00787402 0.0393701 0.110236
1012.14 -0.00787402 -0.0157480 -0.00787402 -0.0236220 -0.0236220 -0.0236220 -0.0708661 -0.173228
1033.26 0.00787402 -0.0236220 -0.0157480 -0.00787402 -0.0157480 -0.0236220 -0.0314961 -0.0393701
1033.26 -0.00787402 -0.0236220 -0.0236220 -0.00787402 -0.0236220 -0.00787402 0.00787402 0.0787402
1049.49 0.0393701 0.00787402 0.0157480 0.00787402 0.00000 0.00000 0.0157480 0.0157480
1049.49 -0.00787402 -0.0314961 -0.0157480 -0.0157480 0.00000 -0.0157480 -0.00787402 -0.0393701
1056.52 -0.00787402 0.00787402 0.00000 -0.00787402 -0.00787402 -0.0157480 -0.00787402 -0.0314961
1056.52 0.102362 0.0472441 0.00787402 -0.00787402 0.00000 0.00787402 0.0157480 0.0708661
1079.56 0.0236220 0.00000 0.00000 -0.0157480 -0.0157480 -0.00787402 -0.0551181 -0.125984
1079.56 0.0157480 -0.0157480 -0.0157480 -0.0157480 0.00000 -0.0314961 -0.0236220 0.0157480
1092.59 -0.0393701 -0.0393701 -0.0236220 -0.00787402 -0.0236220 -0.00787402 -0.00787402 -0.00787402
1092.59 0.00000 0.00000 -0.00787402 -0.00787402 0.00000 0.00787402 0.00787402 0.0236220
1117.13 -0.00787402 0.00787402 -0.00787402 0.00000 0.00000 0.00000 -0.0157480 -0.0393701
1117.13 -0.0551181 -0.0236220 0.00000 -0.00787402 -0.0236220 -0.00787402 -0.00787402 0.00787402
1124.66 -0.0157480 -0.0236220 0.00000 -0.00787402 -0.00787402 0.00787402 0.00000 -0.0236220
1124.66 -0.0393701 0.00000 0.00000 0.00000 -0.00787402 0.00787402 0.00000 -0.00787402
1139.67 -0.00787402 0.00000 -0.00787402 0.00000 -0.0157480 -0.0157480 -0.00787402 0.00787402
1139.67 -0.0314961 -0.00787402 0.0157480 0.00000 -0.00787402 -0.00787402 -0.0157480 -0.0551181
1161.61 -0.0236220 -0.0472441 -0.0157480 -0.0157480 -0.0157480 0.00000 -0.0157480 0.0236220
1161.61 0.0157480 0.00787402 0.00787402 0.00000 -0.0157480 0.00000 0.00787402 0.0157480
1177.01 -0.0629921 -0.0393701 -0.00787402 0.00787402 0.00000 -0.00787402 -0.00787402 -0.00787402
1177.01 0.0314961 0.0236220 -0.0236220 -0.00787402 -0.00787402 -0.00787402 -0.0157480 -0.0472441
1207.41 0.0236220 0.00787402 0.00000 0.00000 -0.00787402 -0.00787402 -0.00787402 -0.0314961
1207.41 -0.00787402 -0.00787402 0.00787402 -0.00787402 -0.0157480 0.00000 0.00000 0.0157480
1222.22 -0.0393701 -0.00787402 -0.00787402 -0.00787402 -0.00787402 -0.0236220 -0.0157480 -0.0708661
1222.22 -0.0472441 -0.0551181 0.00000 0.00000 -0.00787402 -0.0157480 -0.00787402 0.00000
1237.01 -0.0157480 -0.00787402 -0.0236220 -0.00787402 -0.00787402 -0.00787402 -0.0236220 -0.0236220
1237.01 0.0551181 0.00000 0.00787402 0.00000 -0.0157480 -0.00787402 0.00787402 0.0314961
1267.17 0.0314961 0.0157480 -0.0157480 0.00000 0.00000 0.00000 -0.0236220 -0.0236220
1267.17 -0.0472441 -0.0314961 -0.00787402 -0.00787402 -0.0157480 0.00000 0.00000 0.0157480
1281.98 -0.0157480 0.00787402 0.00000 -0.00787402 -0.00787402 0.00000 -0.00787402 0.00787402
1281.98 0.0157480 -0.0157480 -0.00787402 -0.0157480 0.00000 0.00000 0.00000 0.0157480
1289.13 0.0314961 0.0236220 -0.0157480 -0.0157480 -0.00787402 -0.0157480 -0.0236220 -0.00787402
1289.13 0.00787402 0.0157480 -0.0157480 0.00787402 0.00787402 -0.00787402 -0.00787402 0.00787402
1317.06 -0.0393701 -0.00787402 0.00000 0.00000 0.00787402 0.00000 0.00787402 0.0236220
1317.06 0.0236220 -0.00787402 0.00000 0.00787402 -0.00787402 -0.00787402 0.0157480 0.0393701
1328.17 -0.0472441 0.00000 -0.00787402 0.00787402 -0.00787402 0.00000 -0.00787402 -0.0157480
1328.17 -0.0314961 0.00000 0.00000 0.00000 -0.00787402 -0.0236220 -0.0472441 -0.118110
1342.43 0.00000 -0.0393701 0.00000 -0.00787402 0.00000 -0.0157480 0.0236220 0.0629921
1342.43 0.00000 -0.0157480 0.00000 -0.00787402 -0.00787402 0.00000 0.00787402 0.0314961
1364.49 -0.118110 -0.0236220 -0.00787402 0.00000 -0.0157480 0.00787402 -0.00787402 -0.0472441
1364.49 0.0866142 0.0393701 -0.0236220 -0.0157480 -0.0157480 -0.00787402 -0.0236220 -0.0236220
1372.52 -0.0314961 0.00000 -0.00787402 -0.00787402 0.00000 0.0236220 0.0236220 0.0157480
1372.52 -0.0393701 0.00000 0.00000 -0.00787402 0.00000 -0.00787402 -0.0551181 -0.0551181
1393.25 -0.0157480 -0.0157480 -0.00787402 -0.0157480 -0.00787402 -0.0472441 -0.00787402 0.0314961
1393.25 -0.0314961 -0.0157480 0.00000 0.00000 -0.0236220 -0.0472441 -0.00787402 -0.0551181
1401.95 0.0708661 0.0314961 -0.0157480 0.00000 -0.00787402 -0.0157480 0.00000 0.0157480
1401.95 0.0157480 -0.00787402 0.00000 -0.00787402 -0.0157480 0.0236220 0.00000 0.00787402
1416.37 0.0393701 0.0236220 -0.00787402 0.0157480 0.00000 -0.00787402 -0.0393701 -0.0236220
1416.37 0.0157480 -0.00787402 0.00787402 0.00000 0.00787402 0.0236220 0.0236220 0.0236220
1439.00 -0.0472441 -0.0393701 -0.0157480 -0.0157480 0.0157480 0.00787402 -0.00787402 -0.00787402
1439.00 -0.0944882 -0.0393701 -0.0314961 -0.0314961 -0.0314961 -0.0314961 -0.00787402 0.0236220
1447.13 0.00000 -0.0393701 0.00000 0.00787402 -0.00787402 0.00000 0.0236220 0.0866142
1447.13 -0.0236220 -0.0236220 -0.0157480 -0.0157480 -0.0157480 -0.00787402 -0.0629921 -0.220472
1461.98 0.110236 0.0393701 0.00000 -0.00787402 -0.0157480 -0.0157480 -0.0393701 0.00000
1461.98 0.00000 -0.0314961 0.00000 0.00000 0.00000 0.00000 0.0472441 0.110236
1476.88 0.0236220 -0.0157480 -0.00787402 -0.00787402 0.00000 0.00000 0.00000 0.00787402
1476.88 -0.110236 -0.0551181 0.00000 0.00787402 0.00787402 0.00000 -0.0236220 -0.0629921
1484.54 0.0393701 0.0314961 0.00000 -0.00787402 0.00000 -0.0157480 -0.0236220 -0.0314961
1484.54 -0.0551181 -0.00787402 0.00000 0.00000 0.00787402 -0.00787402 0.0157480 0.0314961
1492.57 -0.0944882 -0.0157480 -0.0157480 -0.0157480 -0.0157480 -0.0157480 -0.0551181 -0.181102
1492.57 0.0551181 0.0314961 -0.00787402 -0.0157480 -0.0314961 -0.0157480 -0.0236220 0.0314961
1507.04 0.0551181 0.0157480 0.00000 -0.00787402 -0.0157480 0.00000 0.0236220 0.0393701
1507.04 -0.125984 -0.0708661 -0.0157480 0.00000 0.00787402 0.00787402 0.00000 -0.0314961
1537.03 0.0314961 0.00000 -0.00787402 -0.00787402 -0.0157480 -0.00787402 0.0157480 -0.0157480
1537.03 0.0157480 0.0393701 0.00787402 0.00000 0.00000 -0.00787402 0.00000 0.0157480
1551.79 -0.00787402 -0.00787402 0.00000 -0.00787402 0.00787402 -0.0157480 0.00787402 -0.00787402
1551.79 0.102362 0.0472441 0.00000 -0.00787402 0.00000 -0.00787402 -0.00787402 0.0314961
1566.92 0.0157480 0.00787402 -0.0157480 -0.0157480 0.00000 -0.00787402 0.00787402 0.0236220
1566.92 -0.0629921 -0.0787402 -0.0157480 0.00000 -0.0157480 0.00000 0.00787402 0.00787402
1596.94 0.0157480 0.0157480 0.00000 -0.00787402 0.00000 0.00000 -0.0157480 -0.102362
1596.94 0.0314961 0.0157480 0.0157480 0.0157480 0.00787402 0.0314961 0.0551181 0.0708661
1611.97 -0.00787402 0.00000 0.00000 0.00000 -0.0157480 -0.0236220 0.00787402 0.0157480
1611.97 -0.0314961 -0.0236220 -0.0236220 -0.0157480 -0.0236220 -0.0157480 -0.0472441 -0.0551181
1619.50 -0.0393701 -0.0314961 0.00000 -0.0236220 0.00000 -0.00787402 0.0157480 -0.0236220
1619.50 0.00000 0.0236220 0.00000 -0.00787402 0.00000 0.00000 0.0157480 0.0236220
1627.05 0.0157480 -0.0157480 0.00000 -0.00787402 0.00000 0.00000 0.00000 0.0236220
1627.05 0.00787402 0.0393701 -0.00787402 -0.00787402 -0.00787402 -0.0157480 -0.0236220 -0.0236220
1634.54 0.00000 0.00787402 0.00000 -0.00787402 0.00000 0.00000 0.00787402 0.0157480
1634.54 0.0472441 -0.0472441 -0.0157480 0.00000 -0.00787402 -0.00787402 0.0157480 0.0236220
1649.47 -0.0157480 -0.00787402 -0.0157480 0.00787402 0.00000 0.00000 -0.0236220 -0.0472441
1649.47 0.0708661 0.0472441 0.00000 -0.00787402 -0.00787402 0.00000 0.00000 0.0314961
1663.85 -0.0944882 -0.0787402 -0.0157480 -0.00787402 -0.00787402 -0.00787402 -0.0236220 -0.0236220
1663.85 0.102362 0.0314961 0.00787402 0.00000 0.00787402 0.00787402 0.0236220 0.0629921
1671.95 -0.0787402 -0.0314961 -0.00787402 -0.00787402 -0.0236220 -0.00787402 -0.0157480 0.0393701
1671.95 -0.110236 -0.0708661 -0.0236220 -0.00787402 -0.00787402 -0.0236220 -0.0236220 -0.0393701
1686.77 -0.00787402 -0.0157480 0.00000 -0.0157480 -0.00787402 0.00000 0.00000 0.0393701
1686.77 0.0236220 0.00787402 0.00787402 -0.00787402 0.00000 -0.00787402 0.00000 0.00000
1701.67 -0.0472441 -0.0472441 0.00000 0.00000 0.00000 -0.0157480 0.0157480 0.0551181
1701.67 0.0236220 0.00000 -0.00787402 -0.0157480 -0.00787402 0.00787402 0.00000 -0.00787402
1709.86 -0.0236220 -0.0236220 -0.0157480 -0.0236220 -0.00787402 -0.00787402 -0.00787402 -0.0314961
1709.86 0.0236220 0.0236220 -0.00787402 0.00000 -0.00787402 -0.00787402 -0.0157480 0.00787402
1724.52 0.0236220 0.00000 -0.00787402 0.00787402 0.00000 -0.00787402 -0.00787402 0.00787402
1724.52 -0.0787402 -0.0472441 -0.0236220 -0.0236220 -0.0157480 -0.0236220 -0.0314961 -0.0393701
1732.08 -0.0944882 -0.00787402 -0.0157480 0.00000 0.00000 0.00000 0.0236220 0.0629921
1732.08 0.00787402 -0.0157480 -0.00787402 -0.0236220 -0.00787402 -0.00787402 -0.0157480 -0.0629921
1753.08 0.00000 -0.0314961 -0.0157480 0.00000 -0.0157480 -0.0314961 -0.0472441 0.00000
1753.08 0.0314961 0.0157480 -0.00787402 0.00787402 0.00787402 0.00000 0.00000 -0.0472441
1777.31 -0.0314961 -0.0236220 -0.00787402 -0.00787402 -0.00787402 -0.0157480 -0.0157480 0.0157480
1777.31 -0.0157480 -0.0236220 -0.0157480 -0.00787402 -0.0157480 -0.0157480 -0.00787402 -0.0393701
1784.46 0.0157480 -0.0236220 0.00000 -0.00787402 -0.00787402 0.00787402 -0.00787402 -0.0236220
1784.46 0.0314961 0.00787402 -0.00787402 0.00000 0.00000 0.00787402 0.0314961 0.0393701
1798.12 0.0866142 0.0472441 0.00787402 0.00000 0.00000 0.0157480 -0.0157480 -0.0157480
1798.12 -0.00787402 -0.0236220 0.00000 0.00787402 -0.0157480 0.00787402 0.0314961 0.118110
1807.36 -0.110236 -0.0393701 -0.0157480 -0.0157480 -0.0236220 -0.0157480 -0.0787402 -0.196850
1807.36 -0.0236220 0.00000 -0.0157480 -0.00787402 -0.00787402 -0.0157480 -0.0157480 -0.0314961
1814.50 0.0551181 0.00787402 0.00787402 0.00000 0.00000 0.00787402 0.0393701 0.0472441
1814.50 -0.00787402 -0.0157480 -0.00787402 -0.0236220 -0.0236220 -0.0157480 -0.00787402 -0.00787402
1829.52 0.00000 -0.0236220 0.00000 -0.0157480 -0.00787402 -0.00787402 -0.0314961 -0.0157480
1829.52 -0.0393701 -0.0157480 -0.00787402 -0.00787402 0.0157480 -0.0157480 0.00000 -0.00787402
1866.96 0.0866142 0.0393701 0.00000 0.00000 0.00000 -0.00787402 0.0472441 0.0787402
1866.96 -0.0944882 -0.0629921 -0.0314961 -0.0157480 -0.0157480 -0.0236220 -0.0157480 -0.0551181
1875.02 -0.0314961 0.00787402 0.00000 0.00787402 0.00000 0.00000 0.0157480 0.0393701
1875.02 -0.0314961 -0.0472441 -0.00787402 -0.0157480 -0.0157480 -0.00787402 -0.00787402 0.00787402
1889.80 0.00000 0.00000 -0.0157480 -0.00787402 0.00000 -0.00787402 -0.0236220 -0.110236
1889.80 0.0944882 0.0551181 0.0157480 -0.00787402 -0.0157480 0.00000 0.0157480 0.0787402
1912.08 -0.0393701 -0.0551181 -0.00787402 -0.00787402 0.00000 0.00000 0.00787402 0.0314961
1912.08 0.0236220 0.00787402 0.00000 -0.00787402 -0.00787402 -0.00787402 -0.0236220 -0.0472441
1919.43 -0.0944882 -0.0393701 -0.0157480 0.00787402 -0.0157480 -0.0157480 -0.00787402 0.0157480
1919.43 -0.00787402 0.00787402 -0.00787402 -0.00787402 0.00000 0.00000 0.00000 -0.0236220
1934.42 0.0787402 0.0314961 -0.0157480 -0.0157480 -0.0236220 -0.0236220 -0.0314961 -0.00787402
1934.42 0.00787402 0.00787402 -0.0236220 -0.0157480 -0.0157480 -0.00787402 -0.0157480 -0.0157480
1949.40 -0.0472441 -0.0393701 -0.0157480 -0.00787402 -0.0236220 0.00000 -0.00787402 0.0314961
1949.40 -0.00787402 0.00787402 0.00000 0.00000 0.00000 -0.00787402 0.00000 -0.0629921
1957.50 -0.0393701 -0.0393701 0.0157480 0.00787402 0.0236220 0.00000 0.00000 -0.00787402
1957.50 0.0314961 0.00787402 0.00000 -0.00787402 -0.0236220 -0.0236220 -0.0157480 -0.00787402
1972.20 0.0708661 0.0314961 -0.0157480 -0.0157480 -0.0236220 -0.0157480 0.00787402 0.0314961
1972.20 -0.0708661 -0.0393701 -0.00787402 0.0157480 0.00000 -0.00787402 0.00000 0.0393701
1985.22 0.0236220 0.00000 -0.0236220 -0.0157480 -0.0157480 -0.0157480 -0.0551181 -0.0708661
1985.22 -0.0157480 -0.00787402 0.00000 0.00000 -0.00787402 -0.00787402 -0.0314961 -0.0393701
2001.70 -0.00787402 0.00787402 0.00000 0.00000 -0.00787402 0.00000 -0.00787402 -0.0314961
2001.70 0.00787402 -0.0157480 0.00000 -0.00787402 0.00787402 0.00000 0.00787402 0.0157480
2009.16 0.0551181 0.00787402 0.00787402 0.00787402 0.00000 0.00000 0.0393701 0.0708661
2009.16 0.0157480 -0.00787402 -0.00787402 0.00000 -0.00787402 -0.00787402 0.00000 0.00787402
2040.20 -0.102362 -0.0787402 -0.0236220 -0.00787402 0.00000 -0.0157480 -0.0157480 -0.0157480
2040.20 0.0314961 0.0236220 -0.0157480 -0.0236220 -0.00787402 -0.0157480 0.00000 0.0157480
2054.74 0.0236220 0.0236220 0.00787402 -0.00787402 0.00787402 -0.00787402 0.0157480 0.0236220
2054.74 0.00000 0.0236220 0.00787402 -0.00787402 0.00000 -0.00787402 -0.00787402 -0.0472441
2084.42 -0.196850 -0.0629921 -0.00787402 -0.00787402 -0.0157480 -0.0157480 -0.0157480 -0.0629921
2084.42 0.00000 0.00000 -0.0157480 -0.0157480 0.00000 0.00000 0.00787402 0.00000
2106.41 0.00787402 0.00787402 -0.00787402 -0.0236220 0.00000 -0.00787402 -0.0236220 -0.0551181
2106.41 -0.00787402 -0.0236220 -0.0157480 0.00000 -0.00787402 -0.00787402 -0.00787402 -0.0472441
2142.22 -0.0236220 0.00000 -0.00787402 -0.0157480 0.00000 0.00000 0.0157480 0.0472441
2142.22 -0.0472441 -0.0236220 -0.00787402 -0.0236220 -0.0236220 0.00000 -0.00787402 0.0157480
2151.95 -0.00787402 -0.0236220 -0.00787402 0.00000 -0.0157480 0.00000 -0.00787402 0.0472441
2151.95 0.0472441 0.00787402 0.00787402 -0.00787402 0.00000 -0.0157480 0.0157480 0.00787402
2166.93 -0.0472441 -0.00787402 0.00000 0.00000 -0.0157480 -0.0157480 0.00000 0.00000
2166.93 0.0236220 0.00000 -0.0157480 -0.00787402 -0.00787402 -0.00787402 0.0236220 0.0472441
2181.90 0.102362 0.0393701 0.0157480 0.00787402 0.00000 -0.00787402 0.00000 0.0393701
2181.90 -0.0314961 -0.0157480 0.00000 0.00000 0.00000 -0.00787402 0.00787402 0.0157480
2189.75 0.0236220 0.00000 -0.00787402 -0.00787402 -0.0157480 -0.00787402 -0.00787402 0.0157480
2189.75 -0.0157480 -0.00787402 -0.00787402 -0.00787402 -0.00787402 -0.00787402 -0.0157480 0.00787402
2196.96 0.0393701 0.0236220 0.00000 -0.0157480 -0.00787402 0.00787402 0.00787402 -0.0236220
2196.96 0.00787402 0.00000 0.00787402 0.00000 -0.00787402 0.00000 -0.0157480 -0.0236220
2212.04 -0.0708661 -0.0551181 -0.0157480 0.00000 -0.00787402 -0.00787402 0.00787402 0.0236220
2212.04 -0.0472441 -0.0236220 -0.0157480 -0.00787402 -0.00787402 -0.0236220 -0.0314961 -0.118110
2227.20 0.0157480 0.00000 -0.00787402 0.00000 -0.00787402 -0.00787402 -0.00787402 0.00787402
2227.20 -0.0236220 0.00787402 -0.00787402 -0.00787402 0.00000 0.00787402 -0.0236220 -0.0708661
2240.84 -0.0393701 -0.0708661 -0.0236220 0.00000 0.00000 -0.00787402 0.0236220 0.0551181
2240.84 -0.0393701 0.00000 0.00787402 0.00000 0.00787402 -0.00787402 0.00000 -0.00787402
2249.49 0.0393701 0.0236220 -0.0157480 -0.0157480 0.00000 -0.0236220 -0.00787402 -0.0472441
2249.49 0.00000 0.00000 -0.00787402 -0.0236220 -0.0157480 -0.00787402 -0.0314961 -0.0157480
2263.88 -0.149606 -0.0708661 -0.0157480 0.00000 -0.0157480 0.00000 -0.0157480 -0.0472441
2263.88 0.0314961 0.0314961 -0.0157480 0.00000 -0.0236220 -0.00787402 0.0157480 0.0708661
2274.04 -0.0629921 -0.0472441 -0.00787402 0.00000 0.00787402 0.00787402 0.00000 -0.0157480
2274.04 0.0708661 0.0393701 -0.00787402 -0.00787402 -0.00787402 -0.0157480 -0.0157480 -0.0157480
2286.98 0.0157480 0.0314961 0.00000 0.00000 0.00000 -0.00787402 0.00000 0.00787402
2286.98 0.00787402 0.0157480 -0.00787402 0.00000 -0.00787402 -0.00787402 -0.00787402 0.0157480
2301.91 -0.0708661 -0.0472441 -0.0236220 -0.00787402 -0.00787402 0.00000 -0.00787402 -0.0157480
2301.91 -0.0314961 0.00000 -0.00787402 0.00000 -0.0157480 0.00000 -0.0157480 -0.0236220
2309.50 0.0314961 -0.00787402 0.00000 -0.0236220 0.00000 -0.0157480 -0.0157480 -0.0236220
2309.50 0.00000 0.00000 0.00787402 0.00000 0.00787402 0.00787402 0.00787402 0.0393701
2331.16 -0.118110 -0.0629921 -0.0157480 -0.00787402 -0.00787402 -0.0236220 -0.0236220 -0.0314961
2331.16 0.0236220 0.0157480 0.00787402 -0.00787402 0.00000 -0.00787402 0.00000 -0.00787402
2346.96 0.0157480 0.00000 0.00000 0.00000 0.00000 0.00787402 0.00000 -0.0157480
2346.96 -0.0472441 -0.0472441 -0.00787402 0.00000 -0.00787402 -0.00787402 0.00000 0.00787402
2361.84 0.00000 0.00000 -0.00787402 -0.00787402 -0.00787402 0.00000 -0.00787402 -0.0236220
2361.84 -0.0393701 -0.0236220 0.0157480 0.00000 0.00787402 0.00787402 0.0236220 0.0157480
2367.83 0.0708661 0.0236220 0.00000 0.00000 0.0157480 0.00787402 0.00000 0.00787402
2367.83 0.0157480 0.00000 -0.0157480 -0.0157480 -0.00787402 0.00000 -0.00787402 -0.0314961
2384.46 -0.0314961 -0.0157480 -0.0157480 0.00000 -0.00787402 -0.00787402 -0.00787402 -0.0236220
2384.46 -0.0157480 -0.0236220 -0.00787402 0.00787402 -0.00787402 0.00000 0.00000 0.0236220
2399.56 0.0157480 -0.0157480 0.00000 -0.00787402 -0.00787402 0.00000 -0.00787402 0.0157480
2399.56 -0.00787402 -0.0236220 -0.0157480 -0.00787402 -0.00787402 0.00000 -0.0236220 -0.0551181
2422.43 0.133858 0.0551181 0.0157480 -0.00787402 0.00000 0.00000 0.00787402 0.0314961
2422.43 -0.0944882 -0.0629921 -0.0236220 -0.0236220 -0.0236220 -0.0236220 0.00000 0.0551181
2429.55 0.0236220 0.00787402 0.00000 0.00787402 -0.00787402 -0.0157480 -0.0314961 -0.0708661
2429.55 0.0236220 0.0236220 -0.0157480 -0.00787402 -0.0236220 -0.00787402 -0.0236220 -0.0157480
2444.60 -0.0708661 -0.0314961 -0.0236220 -0.0157480 0.00000 -0.0157480 0.00000 0.0314961
2444.60 0.0236220 0.00787402 0.00000 0.00000 0.00000 -0.00787402 -0.0314961 -0.0787402
2451.96 -0.0157480 -0.0393701 0.00000 -0.0157480 0.00000 0.00000 0.00787402 0.0314961
2451.96 -0.0472441 -0.0314961 -0.00787402 0.00787402 -0.0157480 -0.00787402 -0.00787402 0.00787402
2475.01 0.0787402 0.0551181 0.00787402 0.00787402 0.00787402 0.00000 -0.00787402 -0.0314961
2475.01 -0.00787402 -0.0629921 -0.0236220 -0.00787402 -0.0157480 0.00000 -0.00787402 0.0157480
2481.95 -0.0551181 0.00000 -0.00787402 0.00000 -0.00787402 0.00000 -0.00787402 -0.00787402
2481.95 0.0551181 0.00787402 -0.00787402 -0.00787402 0.00000 0.00000 0.0236220 0.0551181
2495.35 0.0314961 0.0157480 0.00000 -0.00787402 -0.00787402 -0.00787402 -0.0314961 -0.0866142
2495.35 -0.0393701 -0.0157480 0.00787402 -0.00787402 -0.00787402 -0.0157480 0.00787402 0.00000
2504.50 0.00000 0.00000 0.00000 -0.00787402 -0.00787402 -0.0157480 -0.0157480 0.00787402
2504.50 0.00787402 -0.00787402 -0.00787402 0.00787402 -0.00787402 0.00000 -0.00787402 0.0393701
2527.03 0.0157480 -0.0157480 -0.0157480 -0.00787402 0.00787402 -0.00787402 -0.0157480 -0.0629921
2527.03 -0.141732 -0.0393701 -0.00787402 0.00000 -0.00787402 0.00000 -0.0236220 -0.0472441
2542.56 0.00787402 0.00000 -0.00787402 0.00787402 -0.0236220 -0.00787402 0.00000 0.0472441
2542.56 0.0866142 0.0393701 0.00000 -0.00787402 0.00000 -0.00787402 -0.00787402 0.0314961
2549.47 -0.0551181 -0.00787402 -0.00787402 -0.0157480 -0.0157480 -0.00787402 -0.0314961 -0.0866142
2549.47 0.00787402 0.00000 0.00787402 -0.00787402 0.00000 -0.00787402 0.00000 0.0314961
2564.45 -0.0551181 -0.0393701 -0.0157480 0.00787402 -0.00787402 -0.00787402 0.00787402 -0.0708661
2564.45 -0.0157480 0.00000 -0.0157480 0.00000 -0.00787402 -0.00787402 -0.0157480 0.0236220
2579.46 0.00787402 0.0551181 0.00000 -0.0157480 -0.0157480 -0.0157480 -0.00787402 0.0236220
2579.46 0.0236220 -0.0236220 -0.00787402 -0.00787402 0.00000 0.00000 0.00000 0.00000
2594.72 0.0157480 0.00000 -0.00787402 -0.00787402 0.00000 0.00000 0.0314961 0.125984
2594.72 -0.0314961 -0.0236220 -0.0157480 -0.0236220 -0.00787402 -0.0157480 -0.0708661 -0.173228
2602.06 -0.0944882 -0.0393701 -0.0236220 -0.00787402 -0.0157480 -0.00787402 -0.0157480 0.00787402
2602.06 0.0314961 0.00000 0.00787402 0.00000 -0.00787402 0.00000 0.0157480 0.0314961
2616.81 -0.0314961 -0.0236220 0.00000 -0.00787402 -0.0157480 -0.00787402 -0.0236220 -0.0708661
2616.81 -0.0393701 -0.0314961 0.00000 -0.00787402 0.00000 -0.00787402 0.0314961 0.0551181
2623.49 -0.00787402 -0.0472441 -0.00787402 -0.0157480 -0.00787402 -0.0236220 0.00000 0.0236220
2623.49 -0.00787402 0.0393701 -0.0157480 -0.0157480 -0.00787402 -0.00787402 -0.0236220 -0.0551181
2639.99 -0.0551181 -0.0472441 -0.0157480 0.00000 0.00787402 -0.0157480 0.00000 -0.0157480
2639.99 0.0393701 0.0314961 0.00787402 -0.00787402 0.00000 0.00000 0.00787402 0.0551181
2654.29 0.0314961 -0.0472441 -0.0157480 0.00000 -0.00787402 0.00000 0.00000 0.0393701
2654.29 -0.0236220 0.0236220 -0.0157480 0.00000 0.00000 0.00000 -0.0157480 -0.0944882
2662.00 0.00787402 0.0236220 -0.00787402 -0.0157480 -0.00787402 -0.0157480 -0.0314961 0.00000
2662.00 0.0708661 0.0236220 0.0157480 -0.00787402 0.00000 -0.00787402 0.00000 0.00787402
2677.39 -0.0314961 -0.0236220 0.00000 -0.0157480 -0.0236220 -0.0157480 -0.0236220 -0.0314961
2677.39 0.0157480 -0.00787402 0.00787402 0.00000 0.00000 -0.00787402 -0.00787402 0.00000
2683.89 -0.102362 -0.0393701 -0.0157480 0.00000 -0.00787402 -0.00787402 0.00787402 0.00787402
2683.89 0.00000 0.00000 -0.00787402 0.00000 0.00000 0.00000 -0.0314961 -0.0314961
2699.42 0.0393701 -0.0314961 0.00000 0.00000 0.0157480 0.00000 0.0157480 0.0314961
2699.42 -0.0787402 0.00000 -0.0236220 -0.00787402 -0.0236220 -0.0157480 0.0236220 0.0393701
2707.31 0.0236220 0.0157480 0.00000 0.00787402 -0.0157480 -0.0157480 -0.0157480 0.00787402
2707.31 -0.0157480 -0.0314961 -0.00787402 -0.00787402 -0.0157480 -0.0236220 -0.0157480 -0.0551181
2714.45 -0.0629921 -0.0314961 -0.00787402 -0.00787402 -0.00787402 -0.0236220 -0.0314961 -0.0629921
2714.45 0.0944882 0.0314961 -0.00787402 0.00000 -0.0157480 0.00787402 0.00000 0.0157480
2722.50 0.00000 0.00000 -0.0157480 -0.0157480 0.00000 -0.00787402 0.0157480 0.00787402
2722.50 0.0236220 -0.00787402 0.00000 0.00000 0.00000 0.00787402 0.00787402 0.0157480
2744.46 -0.0629921 -0.00787402 -0.00787402 -0.00787402 0.00000 -0.00787402 0.00000 0.0236220
2744.46 0.102362 0.0393701 0.00787402 -0.00787402 0.00787402 -0.00787402 -0.00787402 0.00787402
2750.76 -0.0393701 -0.0314961 0.00000 0.00787402 -0.0157480 -0.00787402 -0.0157480 -0.00787402
2750.76 -0.0472441 -0.00787402 0.00787402 0.00787402 0.00000 0.00787402 0.0157480 0.0157480
2766.90 0.0157480 0.0157480 0.00787402 0.00000 0.00787402 0.00000 -0.00787402 0.00000
2766.90 -0.0314961 0.00000 -0.0236220 -0.0236220 -0.00787402 -0.0157480 -0.0157480 0.00000
2781.75 -0.0236220 0.00000 -0.00787402 -0.00787402 -0.00787402 -0.00787402 0.00787402 0.00000
2781.75 -0.0314961 -0.0157480 -0.00787402 0.00787402 -0.00787402 -0.00787402 0.00000 0.00000
2790.17 0.0866142 0.0236220 -0.00787402 -0.00787402 0.00000 0.00000 0.0157480 0.0157480
2790.17 -0.0629921 -0.0393701 -0.00787402 -0.00787402 0.00000 0.00000 0.0157480 0.00000
2796.97 0.0551181 0.0314961 0.00000 0.00000 -0.0157480 -0.00787402 -0.0236220 0.00000
2796.97 -0.118110 -0.0314961 -0.0236220 0.00000 -0.0157480 -0.0236220 -0.0551181 -0.110236
2804.54 -0.0157480 -0.0236220 -0.0236220 0.00000 -0.0157480 -0.0157480 -0.0236220 -0.0157480
2804.54 -0.00787402 -0.00787402 -0.00787402 -0.00787402 -0.00787402 -0.00787402 -0.00787402 0.0157480
2817.01 -0.00787402 0.0157480 -0.00787402 -0.00787402 -0.0236220 0.00787402 0.00000 0.0157480
2817.01 -0.0236220 -0.0629921 0.00787402 -0.00787402 0.00787402 -0.00787402 0.00787402 0.0236220
2832.74 0.00000 -0.0314961 -0.00787402 -0.0157480 -0.00787402 -0.0157480 -0.00787402 -0.00787402
2832.74 0.0787402 0.0393701 0.00000 -0.00787402 -0.0157480 -0.00787402 -0.0157480 0.0157480
2842.08 -0.188976 -0.0944882 -0.0393701 -0.0157480 -0.0157480 -0.00787402 0.00000 -0.0629921
2842.08 0.0314961 0.0157480 -0.0157480 -0.0157480 -0.00787402 -0.00787402 0.00000 0.00787402
2857.11 0.0236220 0.00787402 -0.00787402 0.00000 -0.0157480 -0.00787402 -0.00787402 0.00787402
2857.11 -0.0393701 -0.0393701 -0.00787402 0.00787402 0.00000 0.0157480 -0.00787402 0.00000
2864.41 -0.0157480 -0.0236220 -0.0157480 -0.0236220 -0.0157480 0.00000 -0.0236220 -0.0866142
2864.41 0.0787402 0.0629921 -0.00787402 -0.00787402 -0.0157480 -0.00787402 -0.00787402 -0.0393701
2879.17 -0.0551181 -0.0629921 -0.00787402 -0.00787402 0.00000 0.00000 0.00000 0.00000
2879.17 0.0157480 0.00787402 0.00000 -0.0157480 -0.0157480 -0.0157480 0.00000 0.00787402
2886.91 0.00000 -0.0393701 -0.00787402 0.00000 0.00000 0.00000 -0.0236220 0.00000
2886.91 0.0314961 0.0236220 -0.0157480 -0.00787402 -0.00787402 -0.00787402 0.00000 0.0157480
2894.48 0.0866142 0.0314961 0.00000 0.00787402 0.00000 0.00000 0.00787402 0.0236220
2894.48 -0.0866142 -0.0314961 -0.0157480 0.00000 0.00000 0.00000 0.0236220 0.0944882
2901.89 0.00787402 -0.0236220 0.00000 -0.00787402 0.00000 -0.0236220 -0.0236220 -0.102362
2901.89 -0.102362 -0.0629921 -0.00787402 -0.0157480 -0.00787402 -0.00787402 -0.0314961 -0.0708661
2916.95 0.0787402 0.0314961 0.0157480 0.00000 -0.00787402 -0.00787402 -0.0393701 -0.0236220
2916.95 0.00000 0.0314961 -0.0236220 -0.00787402 -0.0157480 -0.0157480 0.0236220 0.0157480
2931.98 0.0629921 -0.0236220 -0.00787402 0.00000 0.00000 0.00787402 0.0236220 0.0944882
2931.98 0.0236220 0.00787402 -0.00787402 0.00000 -0.00787402 0.00000 0.00000 0.00787402
2946.98 -0.0866142 -0.0393701 0.00000 0.00000 -0.00787402 -0.00787402 -0.0236220 -0.0708661
2946.98 0.0157480 0.0236220 0.00000 -0.0157480 -0.00787402 -0.0236220 -0.0157480 -0.0393701
2954.67 0.0157480 0.0157480 0.00787402 -0.00787402 0.00000 0.00000 0.00787402 0.0314961
2954.67 0.0314961 -0.00787402 0.00787402 0.00000 -0.00787402 0.00000 0.00787402 0.0236220
2961.21 -0.0393701 0.00787402 -0.00787402 0.00000 -0.00787402 -0.0157480 0.00000 0.00787402
2961.21 -0.0787402 -0.0787402 -0.0157480 0.00000 0.00000 0.00787402 -0.0157480 -0.0393701
2976.25 -0.0157480 -0.0236220 0.00000 -0.00787402 0.00000 0.00787402 0.00787402 0.00787402
2976.25 0.0236220 -0.00787402 -0.0236220 -0.00787402 -0.00787402 -0.0236220 0.00000 0.0629921
2983.79 -0.0472441 0.00000 -0.00787402 -0.0157480 -0.0157480 0.00787402 0.00000 -0.0629921
2983.79 0.0393701 0.0236220 0.00787402 -0.00787402 -0.00787402 -0.0157480 -0.0157480 -0.0472441
2991.26 -0.00787402 0.00000 0.00787402 0.00787402 -0.00787402 -0.00787402 -0.0393701 -0.0629921
2991.26 -0.0236220 -0.0314961 -0.0157480 -0.00787402 0.00000 0.00000 -0.00787402 -0.0157480
3006.19 0.00000 0.00000 -0.00787402 -0.00787402 0.00000 -0.0157480 0.0157480 0.0551181
3006.19 0.110236 0.0472441 0.00787402 -0.0236220 -0.00787402 -0.00787402 0.0157480 0.0314961
3013.59 -0.0944882 -0.0157480 -0.00787402 0.00787402 0.00000 -0.00787402 0.00000 0.00000
3013.59 0.0708661 0.0157480 0.0157480 -0.00787402 0.00000 0.00000 0.00000 0.00787402
3029.44 -0.149606 -0.0629921 -0.0157480 -0.00787402 -0.0236220 -0.0157480 -0.0157480 -0.00787402
3029.44 0.0708661 0.0314961 -0.00787402 0.00000 -0.0236220 0.00000 -0.00787402 0.00000
3044.53 0.00787402 -0.00787402 -0.0157480 -0.00787402 0.00787402 -0.0157480 -0.0472441 -0.125984
3044.53 0.00000 0.00000 0.00000 -0.00787402 0.00000 -0.00787402 -0.0157480 0.00787402
3051.99 0.0314961 -0.00787402 -0.0157480 -0.0157480 -0.00787402 -0.00787402 0.00000 0.00787402
3051.99 0.0157480 -0.00787402 0.00000 0.00000 0.0157480 0.00000 0.0157480 0.0314961
3060.00 -0.00787402 0.0236220 0.00787402 0.00000 -0.00787402 -0.00787402 -0.0314961 -0.0629921
3060.00 -0.0393701 -0.0236220 0.00000 0.00000 -0.00787402 -0.00787402 -0.0236220 -0.0314961
3074.59 -0.0157480 -0.0157480 -0.0157480 0.00000 -0.00787402 -0.00787402 -0.00787402 0.00000
3074.59 0.0393701 0.00000 -0.0157480 0.00000 -0.00787402 -0.0236220 0.00000 -0.0157480
3082.03 0.0629921 -0.0236220 -0.00787402 -0.0157480 -0.00787402 -0.0236220 0.0157480 0.0551181
3082.03 -0.0157480 -0.0236220 0.00787402 -0.0157480 -0.00787402 -0.00787402 0.00787402 0.00000
3096.95 0.0708661 0.0787402 -0.00787402 -0.0157480 -0.0157480 -0.00787402 0.00000 0.0236220
3096.95 -0.0472441 -0.0236220 -0.00787402 -0.00787402 -0.00787402 0.00787402 0.00000 -0.00787402
3111.22 0.00787402 0.00787402 -0.0157480 -0.00787402 -0.00787402 -0.0236220 -0.0236220 -0.0393701
3111.22 -0.0708661 -0.0393701 -0.0236220 -0.00787402 -0.0236220 -0.0157480 -0.0393701 -0.0708661
3119.44 0.0236220 -0.0157480 0.00787402 0.00000 -0.0157480 -0.00787402 0.0157480 0.0629921
3119.44 -0.0157480 -0.00787402 -0.00787402 -0.00787402 0.00000 0.00000 0.00000 0.00787402
3127.85 -0.0629921 -0.0236220 -0.0157480 -0.00787402 -0.0157480 -0.00787402 -0.0236220 -0.0787402
3127.85 0.0472441 0.0157480 0.00000 0.00787402 0.0157480 0.00000 0.00000 0.00787402
3141.38 -0.125984 -0.0866142 -0.0236220 -0.0236220 -0.0236220 -0.0157480 -0.0236220 -0.0314961
3141.38 0.00000 -0.00787402 -0.00787402 -0.00787402 0.00000 -0.00787402 -0.0157480 -0.0314961
3149.48 -0.00787402 -0.0314961 -0.0157480 -0.00787402 0.00000 0.00000 0.0236220 0.0866142
3149.48 -0.0472441 0.0314961 -0.0157480 -0.00787402 0.00000 -0.00787402 -0.00787402 -0.0472441
3164.38 0.00000 0.00000 -0.00787402 0.00000 0.00000 -0.00787402 -0.0236220 -0.0629921
3164.38 0.00000 -0.00787402 0.00787402 -0.00787402 -0.00787402 -0.00787402 -0.0314961 -0.00787402
3171.92 0.00000 0.00787402 -0.00787402 -0.0157480 0.00000 -0.0157480 -0.00787402 0.0157480
3171.92 0.00000 -0.0157480 -0.0157480 0.00000 -0.00787402 -0.0157480 -0.00787402 0.00000
3179.55 0.0393701 0.00787402 -0.00787402 0.00000 -0.0157480 0.00000 0.00787402 0.0314961
3179.55 -0.0472441 -0.0393701 -0.0157480 -0.0236220 -0.0236220 -0.0157480 -0.00787402 -0.0157480
3186.76 -0.0236220 0.0157480 0.00787402 -0.00787402 -0.00787402 0.00000 -0.0157480 -0.0393701
3186.76 0.0393701 0.0236220 0.00787402 0.00000 0.00787402 -0.00787402 0.00787402 0.0314961
3209.54 -0.102362 -0.0472441 -0.0157480 -0.0157480 0.00787402 -0.00787402 0.0236220 -0.00787402
3209.54 0.00787402 0.00787402 -0.0236220 0.00000 -0.00787402 -0.00787402 -0.00787402 -0.0629921
3225.11 -0.0314961 0.00000 0.00787402 0.00000 -0.00787402 0.00787402 0.0157480 0.0393701
3225.11 0.00000 -0.0236220 -0.00787402 -0.00787402 0.00787402 0.00000 0.00000 0.0393701
3229.97 0.0157480 0.0629921 -0.0236220 -0.00787402 -0.0236220 0.00000 0.00000 -0.0157480
3229.97 0.0157480 -0.00787402 -0.00787402 0.00000 -0.00787402 -0.0157480 0.0157480 0.0314961
3238.98 0.0157480 -0.0157480 -0.0157480 -0.0157480 0.00787402 -0.0157480 -0.0157480 -0.00787402
3238.98 -0.0708661 -0.0236220 0.00000 0.00000 -0.00787402 0.00000 -0.0314961 -0.0551181
3246.47 -0.00787402 0.00787402 0.00787402 -0.00787402 -0.00787402 0.00000 0.00000 0.00787402
3246.47 0.0787402 0.0314961 -0.00787402 0.00000 -0.00787402 -0.00787402 0.0157480 0.0551181
3261.94 -0.0629921 -0.0393701 -0.0157480 -0.0157480 -0.00787402 0.00000 -0.0393701 -0.102362
3261.94 0.00787402 -0.00787402 0.0157480 -0.00787402 0.00000 0.00787402 -0.00787402 0.0393701
3277.02 0.125984 0.0236220 0.00000 0.00787402 0.00000 -0.00787402 0.0314961 0.0866142
3277.02 -0.102362 -0.0236220 -0.0236220 -0.00787402 -0.0157480 -0.0157480 -0.0236220 -0.102362
3284.36 0.00000 0.0236220 0.00000 -0.00787402 -0.0236220 -0.00787402 -0.0314961 -0.0472441
3284.36 -0.0629921 -0.0393701 0.00000 -0.0157480 0.00000 -0.00787402 -0.0236220 -0.0472441
3292.39 0.0314961 0.00000 0.00787402 -0.00787402 -0.00787402 -0.00787402 -0.00787402 0.0314961
3292.39 0.0236220 0.00000 -0.0236220 0.00000 -0.00787402 0.00000 0.0157480 0.0472441
3299.47 0.0236220 0.0157480 -0.00787402 -0.0157480 0.00000 -0.0157480 -0.00787402 0.00000
3299.47 -0.149606 -0.0787402 -0.0157480 -0.00787402 0.00000 0.00000 0.00787402 -0.0157480
3314.50 -0.0629921 0.00000 -0.0157480 0.00000 0.0157480 0.00000 -0.0236220 -0.0393701
3314.50 0.0708661 0.0472441 0.00000 0.00000 -0.00787402 0.00000 0.00000 0.00787402
3321.86 0.00000 -0.0236220 0.00000 0.00000 0.00787402 0.0157480 0.0393701 0.0314961
3321.86 0.110236 0.0551181 0.0314961 0.00787402 0.00000 0.0157480 0.0236220 0.0787402
3336.92 0.0157480 0.00000 -0.00787402 -0.00787402 -0.00787402 -0.0157480 -0.0157480 -0.0236220
3336.92 0.00000 0.00000 -0.0236220 -0.0157480 -0.00787402 -0.0157480 -0.0314961 -0.0472441
3342.97 0.0157480 -0.0314961 -0.00787402 0.00787402 -0.0157480 -0.0236220 -0.0393701 -0.0787402
3342.97 -0.0629921 -0.0629921 0.00000 0.00000 0.00787402 0.0157480 0.0157480 0.0472441
3359.98 0.0314961 -0.00787402 0.00000 0.00000 0.00000 0.00000 0.00000 0.0236220
3359.98 0.0551181 0.0787402 0.00787402 -0.00787402 -0.0157480 0.00787402 0.00787402 0.0472441
3366.85 -0.00787402 0.0236220 -0.0157480 -0.00787402 0.00000 -0.0157480 -0.0157480 0.0236220
3366.85 0.0629921 0.0236220 -0.0157480 -0.00787402 -0.0157480 -0.0157480 0.00787402 0.00787402
3381.97 -0.0866142 -0.0393701 -0.00787402 0.00000 0.00000 0.00787402 0.00000 0.0157480
3381.97 -0.0314961 -0.0236220 0.00000 -0.0236220 -0.00787402 -0.00787402 -0.0314961 -0.0944882
3389.89 -0.0236220 -0.0314961 -0.0157480 -0.00787402 -0.0157480 -0.00787402 0.00787402 0.0393701
3389.89 0.118110 0.0393701 -0.00787402 -0.0157480 -0.0236220 -0.00787402 -0.0157480 0.0472441
3404.44 -0.00787402 0.00000 -0.0236220 0.00000 -0.0157480 0.00000 -0.0314961 -0.141732
3404.44 -0.0393701 -0.0393701 -0.0236220 -0.00787402 -0.00787402 -0.0236220 -0.0157480 0.0314961
3411.96 0.0629921 0.0157480 -0.00787402 -0.0157480 -0.00787402 0.00000 0.00000 0.0314961
3411.96 -0.0472441 -0.0393701 -0.0157480 0.00000 -0.00787402 0.00787402 0.00787402 -0.0157480
3419.38 0.0866142 0.0708661 0.00000 -0.0157480 0.00000 -0.00787402 0.00000 0.00787402
3419.38 -0.0472441 -0.0551181 -0.0157480 -0.0157480 -0.0157480 0.00787402 0.0157480 0.0157480
3440.87 -0.0551181 0.00000 0.00787402 0.00787402 -0.00787402 0.00000 -0.0157480 0.00787402
3440.87 0.0236220 -0.0314961 0.00787402 0.00000 -0.00787402 -0.00787402 -0.00787402 -0.0551181
3464.44 -0.0393701 0.00000 -0.00787402 0.00787402 0.00787402 0.00000 0.00787402 0.0236220
3464.44 0.00000 -0.00787402 0.00787402 -0.00787402 0.00000 -0.00787402 -0.0157480 -0.0393701
3479.43 0.0629921 0.0393701 -0.00787402 -0.0157480 0.00000 0.00787402 0.0314961 0.0944882
3479.43 0.0944882 0.0314961 0.0157480 0.00000 0.00000 -0.00787402 0.0236220 0.0472441
3486.94 -0.125984 0.0472441 -0.0393701 -0.0314961 -0.0236220 -0.0393701 -0.102362 -0.228346
3486.94 0.0236220 -0.0393701 0.00000 0.00000 -0.0157480 -0.0236220 -0.0472441 -0.0551181
3494.45 -0.220472 -0.299213 -0.0472441 -0.0157480 -0.0157480 0.00000 -0.0157480 -0.0314961
3494.45 -0.0629921 0.0708661 0.00000 0.00787402 -0.0157480 -0.00787402 0.0236220 0.110236
3501.25 -0.0314961 -0.0157480 0.0236220 0.00000 0.00000 0.0157480 0.0472441 0.0708661
3501.25 0.157480 0.582677 0.0393701 0.00787402 0.00000 0.00000 0.0393701 0.0236220
3516.91 0.125984 0.354331 0.0866142 0.00787402 0.00787402 0.00000 0.0393701 0.0944882
3516.91 0.0314961 -0.118110 -0.0314961 -0.00787402 0.00787402 0.00787402 0.0236220 0.0787402
3524.51 0.0866142 0.0708661 0.0157480 0.00000 0.00000 0.00787402 0.0236220 0.0708661
3524.51 0.0157480 -0.0866142 -0.00787402 0.00000 -0.0157480 0.00787402 0.0157480 0.0236220
3531.67 -0.0866142 0.0866142 0.00000 -0.00787402 -0.00787402 -0.00787402 -0.0629921 -0.173228
3531.67 -0.0314961 -0.133858 -0.0236220 -0.00787402 -0.0157480 -0.00787402 -0.0236220 -0.0393701
3540.09 -0.0236220 0.0393701 -0.00787402 -0.0236220 -0.00787402 -0.00787402 0.00000 0.0472441
3540.09 -0.0551181 -0.173228 -0.0236220 0.00787402 0.00000 -0.00787402 0.0472441 0.0866142
3554.46 -0.00787402 -0.0314961 -0.0236220 -0.0157480 -0.00787402 -0.0157480 -0.0314961 -0.0708661
3554.46 0.00000 0.157480 0.0236220 -0.00787402 -0.00787402 -0.00787402 -0.0236220 -0.0472441
3561.80 0.0236220 -0.0314961 -0.0157480 -0.00787402 0.00000 -0.00787402 -0.0393701 -0.0708661
3561.80 -0.00787402 -0.0472441 -0.00787402 -0.0314961 0.00000 -0.00787402 -0.0236220 -0.0236220
3577.26 0.0236220 -0.00787402 0.00787402 0.00000 -0.0157480 -0.0236220 0.00787402 0.0236220
3577.26 -0.0708661 0.0629921 -0.00787402 0.00000 -0.0157480 -0.00787402 -0.00787402 0.00787402
3584.41 0.0629921 0.00787402 0.00000 0.00000 -0.00787402 -0.00787402 0.0157480 0.0472441
3584.41 -0.0472441 -0.0551181 -0.0236220 -0.00787402 -0.00787402 0.00000 -0.00787402 -0.0393701
3590.00 -0.0393701 -0.0866142 -0.00787402 -0.00787402 0.00000 -0.0157480 -0.0157480 -0.0393701
3590.00 0.141732 0.125984 0.0157480 -0.00787402 -0.00787402 0.00000 0.0236220 0.0866142
3607.30 -0.133858 -0.0866142 -0.00787402 -0.0157480 -0.0157480 -0.0157480 -0.0157480 -0.0393701
3607.30 -0.149606 -0.102362 -0.0314961 -0.0157480 -0.0314961 -0.0314961 -0.0157480 -0.0472441
3621.96 0.0314961 0.0157480 0.00000 -0.00787402 -0.00787402 0.00787402 0.0157480 0.0629921
3621.96 0.00787402 0.0314961 0.00787402 0.00000 0.00000 0.00000 0.0236220 0.0472441
3629.44 0.0393701 -0.0157480 0.00000 0.00787402 0.00000 -0.00787402 -0.0157480 -0.0314961
3629.44 0.0236220 0.0236220 -0.00787402 0.00000 0.00000 0.00000 -0.0472441 -0.0866142
3644.91 0.0944882 0.0472441 0.00000 -0.00787402 -0.00787402 0.00000 0.0393701 0.0866142
3644.91 -0.00787402 -0.0314961 0.00000 -0.00787402 0.00787402 0.00787402 0.0236220 0.0866142
3651.90 -0.0629921 -0.0393701 -0.0314961 -0.0314961 -0.0314961 -0.0157480 -0.0393701 -0.0551181
3651.90 0.0314961 0.0629921 0.00787402 -0.00787402 0.00787402 0.00000 0.00787402 0.0551181
3656.98 0.0236220 0.00787402 0.00000 -0.00787402 0.00000 -0.00787402 0.0314961 0.0629921
3656.98 -0.0393701 -0.0472441 -0.0236220 -0.00787402 -0.0314961 0.00000 -0.0157480 -0.0157480
3674.85 0.00787402 -0.00787402 -0.0157480 0.00000 0.00787402 0.00000 0.0157480 0.00787402
3674.85 0.00787402 0.00787402 -0.0157480 -0.00787402 -0.00787402 -0.0236220 -0.0236220 -0.0708661
3680.28 -0.0157480 0.00787402 0.00000 0.0157480 0.00000 0.0157480 0.00787402 0.0551181
3680.28 -0.0157480 0.00000 -0.00787402 -0.0236220 -0.00787402 -0.00787402 0.00000 -0.0551181
3696.94 0.0551181 -0.0314961 0.00000 0.00000 0.00000 0.00000 0.0472441 0.118110
3696.94 -0.0708661 0.0236220 0.00000 -0.00787402 -0.00787402 -0.0157480 -0.0629921 -0.157480
3703.47 0.0157480 0.0314961 0.00000 -0.0157480 0.00000 0.00000 -0.00787402 0.00000
3703.47 -0.0314961 -0.0314961 -0.00787402 -0.00787402 0.00000 -0.00787402 0.00787402 0.00000
3710.26 0.0314961 0.0236220 -0.00787402 -0.00787402 -0.0157480 -0.00787402 -0.00787402 -0.0157480
3710.26 0.0472441 0.00787402 0.00000 0.00000 0.00000 -0.00787402 0.0393701 0.102362
3719.42 -0.0787402 -0.0944882 -0.0236220 -0.0157480 -0.0236220 -0.00787402 -0.0393701 -0.102362
3719.42 0.0236220 0.0157480 0.00000 0.00000 0.00787402 0.00787402 0.00000 0.0236220
3742.16 -0.0314961 -0.0157480 -0.0157480 -0.00787402 -0.00787402 -0.0157480 -0.00787402 -0.0314961
3742.16 -0.00787402 0.00787402 -0.00787402 -0.0157480 -0.0236220 -0.00787402 0.00787402 0.00000
3749.43 0.110236 0.00000 0.00000 0.00787402 -0.00787402 0.00787402 0.0236220 0.157480
3749.43 -0.149606 -0.0393701 -0.0314961 -0.0157480 -0.0236220 -0.0393701 -0.0708661 -0.165354
3764.40 0.00787402 0.0393701 0.0157480 0.00787402 0.00000 -0.00787402 -0.0314961 -0.102362
3764.40 -0.0629921 -0.0472441 -0.0157480 -0.0236220 -0.00787402 -0.00787402 -0.0314961 -0.00787402
3772.55 0.0472441 0.0157480 0.0157480 0.00787402 -0.0157480 0.00000 0.0314961 0.0629921
3772.55 0.0708661 -0.0314961 -0.0157480 -0.00787402 -0.00787402 0.00000 0.0236220 0.0944882
3786.94 -0.118110 -0.00787402 -0.00787402 -0.0157480 -0.00787402 -0.00787402 -0.0157480 -0.0236220
3786.94 -0.0236220 -0.00787402 -0.00787402 0.00000 0.00787402 -0.0157480 -0.00787402 -0.0236220
3794.37 -0.0314961 0.00000 -0.0157480 -0.0157480 -0.00787402 -0.00787402 0.00787402 0.0314961
3794.37 0.00787402 -0.0393701 0.00000 0.00000 0.00000 0.00787402 -0.00787402 -0.00787402
3810.04 0.0472441 0.0236220 -0.0157480 -0.00787402 -0.00787402 -0.00787402 -0.0157480 -0.0236220
3810.04 -0.0157480 -0.00787402 0.00000 0.00000 -0.0236220 -0.00787402 -0.0157480 0.00000
3824.45 0.0866142 0.0157480 0.00000 0.00787402 0.00000 -0.00787402 0.0314961 0.0708661
3824.45 0.0236220 0.0236220 -0.00787402 0.00000 -0.00787402 -0.00787402 0.0157480 -0.00787402
3831.95 0.0314961 0.0157480 -0.00787402 0.00000 -0.00787402 -0.0157480 -0.0314961 -0.0787402
3831.95 -0.0472441 -0.0314961 -0.0157480 -0.0157480 0.00000 -0.00787402 0.0157480 0.0472441
3839.83 -0.0314961 -0.0236220 0.00000 -0.00787402 -0.00787402 -0.0314961 -0.0551181 -0.00787402
3839.83 -0.0629921 -0.00787402 -0.0157480 0.00000 -0.00787402 -0.0157480 -0.0393701 -0.0551181
3854.42 -0.00787402 -0.00787402 0.00000 -0.00787402 -0.00787402 -0.00787402 0.00000 0.0236220
3854.42 -0.00787402 -0.0157480 0.00000 -0.0157480 -0.0157480 0.00000 0.00787402 0.0236220
3869.19 0.0157480 -0.0314961 -0.0236220 0.00000 -0.00787402 0.00787402 0.00787402 0.0157480
3869.19 0.00787402 -0.00787402 0.00000 0.00787402 -0.00787402 0.00000 -0.0157480 -0.0236220
3892.02 0.141732 0.0708661 -0.00787402 -0.0236220 -0.0157480 -0.0157480 0.00787402 0.0472441
3892.02 -0.125984 -0.0236220 -0.0157480 -0.0157480 -0.0236220 -0.0236220 -0.0551181 -0.157480
3907.39 -0.0157480 -0.0944882 -0.0157480 0.00787402 0.00000 -0.00787402 0.00787402 0.0314961
3907.39 0.0551181 0.0157480 0.00000 -0.00787402 0.00787402 0.00000 0.0157480 0.0708661
3921.83 -0.0236220 -0.0157480 -0.0157480 -0.00787402 0.00000 -0.00787402 -0.0236220 -0.0393701
3921.83 -0.0157480 0.00000 -0.00787402 -0.00787402 0.00787402 0.00000 -0.00787402 -0.0157480
3936.70 0.0236220 0.0472441 0.00000 0.00000 -0.00787402 0.0157480 0.00787402 0.00787402
3936.70 0.00000 -0.00787402 0.00000 -0.00787402 -0.0157480 -0.0157480 -0.0157480 -0.00787402
3951.77 -0.0629921 -0.0314961 -0.0157480 -0.00787402 0.00000 -0.00787402 -0.00787402 -0.0236220
3951.77 0.0314961 0.00000 0.00787402 0.00000 0.00787402 -0.00787402 0.00000 0.00787402
3966.96 -0.0472441 -0.0472441 -0.00787402 0.00000 0.00000 0.00000 0.00787402 0.00787402
3966.96 -0.00787402 0.00787402 0.00787402 0.00000 0.00000 0.00000 0.00787402 0.00787402
3975.05 0.00787402 0.0314961 -0.00787402 -0.00787402 -0.00787402 -0.0157480 0.00000 -0.00787402
3975.05 -0.0944882 -0.0472441 -0.0157480 -0.0157480 -0.0157480 -0.00787402 -0.0393701 -0.0629921
3989.75 0.0866142 0.0393701 -0.00787402 0.00000 -0.0236220 -0.0157480 -0.0314961 -0.0472441
3989.75 -0.0708661 -0.0236220 -0.0236220 -0.0314961 -0.0236220 -0.0157480 -0.0236220 -0.0236220
3994.29 -0.00787402 -0.0157480 -0.00787402 0.00000 0.00000 -0.00787402 -0.00787402 0.00000
3994.29 0.0314961 0.0157480 -0.00787402 -0.0157480 0.00787402 0.00000 0.0157480 0.0629921
4010.24 -0.00787402 -0.0236220 -0.0157480 0.00000 -0.00787402 0.00787402 0.00787402 0.00787402
4010.24 0.0236220 0.00787402 0.00000 0.00000 -0.00787402 0.00000 0.00787402 0.0157480
4026.83 0.0866142 0.0472441 0.00787402 0.00787402 0.00000 0.00000 -0.00787402 0.0236220
4026.83 -0.118110 -0.0787402 -0.0157480 0.00000 -0.00787402 -0.0236220 -0.0236220 -0.0866142
4034.49 -0.0157480 0.00000 0.00000 0.00000 -0.0157480 -0.00787402 0.00787402 0.0551181
4034.49 0.0472441 -0.0236220 -0.00787402 0.00000 -0.00787402 -0.0157480 -0.0157480 -0.0393701
4049.44 -0.00787402 0.00787402 -0.0157480 -0.0157480 -0.0236220 -0.0157480 0.00000 0.00000
4049.44 0.0472441 0.0314961 0.00000 -0.0157480 -0.0236220 -0.00787402 -0.0157480 -0.00787402
4057.65 -0.0629921 -0.0393701 0.00000 -0.00787402 0.00000 -0.00787402 -0.00787402 -0.0393701
4057.65 -0.0157480 -0.00787402 -0.0157480 0.00000 -0.00787402 0.00787402 0.00000 0.0236220
4079.46 0.00000 -0.00787402 0.00000 0.00000 0.00000 -0.00787402 -0.00787402 -0.0236220
4079.46 0.0157480 0.0157480 -0.00787402 0.00000 0.00000 -0.00787402 -0.00787402 0.0157480
4102.06 -0.0157480 -0.0236220 -0.0157480 -0.00787402 -0.00787402 -0.00787402 0.00000 -0.0157480
4102.06 -0.00787402 -0.00787402 -0.0157480 -0.00787402 0.00000 0.00000 0.00000 0.00000
4116.91 0.00787402 -0.0314961 -0.00787402 0.00000 0.00000 -0.00787402 -0.0157480 -0.0157480
4116.91 -0.0944882 -0.0393701 -0.0157480 -0.0236220 -0.0157480 -0.0236220 -0.00787402 0.0157480
4132.69 -0.0314961 0.0157480 -0.00787402 -0.00787402 -0.0157480 0.00787402 0.0157480 -0.00787402
4132.69 0.141732 0.0472441 -0.00787402 -0.00787402 -0.0236220 -0.0236220 -0.0629921 -0.0787402
4139.82 -0.0629921 -0.0944882 -0.00787402 -0.0157480 -0.00787402 -0.0157480 -0.0157480 -0.00787402
4139.82 -0.141732 -0.00787402 0.00000 -0.00787402 0.00000 -0.00787402 -0.0236220 -0.0472441
4146.94 0.0787402 0.0472441 0.00000 -0.0236220 -0.00787402 0.00000 -0.0157480 -0.0236220
4146.94 0.0157480 -0.0157480 -0.00787402 -0.0236220 -0.00787402 0.00787402 0.00000 0.00000
4161.85 -0.00787402 0.00787402 0.00000 0.00000 0.00000 -0.00787402 0.00000 -0.0157480
4161.85 0.0157480 0.0157480 -0.0157480 -0.00787402 -0.0157480 0.00000 0.00787402 0.00787402
4176.66 -0.0314961 -0.00787402 0.00787402 -0.00787402 -0.00787402 0.00000 -0.00787402 -0.00787402
4176.66 0.0393701 0.00000 0.00000 -0.00787402 0.00000 0.00000 0.00000 0.00000
4191.91 0.110236 0.0472441 -0.00787402 -0.00787402 -0.00787402 0.00787402 -0.00787402 0.0551181
4191.91 -0.0787402 0.0393701 -0.0157480 -0.0157480 -0.00787402 -0.0157480 -0.00787402 -0.0787402
4207.30 -0.0157480 -0.0708661 -0.0236220 -0.00787402 -0.0157480 -0.00787402 -0.0236220 -0.0157480
4207.30 -0.0157480 0.00787402 -0.00787402 -0.00787402 -0.00787402 0.00000 -0.00787402 0.00000
4214.31 -0.0393701 0.00000 -0.00787402 -0.0157480 -0.0236220 0.00000 0.00787402 0.00000
4214.31 0.0157480 -0.0472441 0.00000 0.00787402 0.00000 0.0157480 -0.00787402 0.0314961
4229.37 -0.0236220 0.0236220 0.00000 -0.00787402 -0.00787402 -0.0157480 -0.0236220 -0.0708661
4229.37 0.118110 0.0787402 -0.00787402 -0.00787402 0.00000 -0.0157480 0.0157480 0.0472441
4236.86 -0.0314961 -0.0787402 -0.00787402 0.00787402 0.00787402 0.00787402 0.0157480 0.0157480
4236.86 0.0708661 0.0236220 0.00000 -0.00787402 -0.00787402 -0.00787402 -0.0629921 -0.110236
4251.89 -0.0393701 0.0157480 0.0157480 0.0236220 0.00787402 -0.00787402 -0.00787402 0.00787402
4251.89 -0.00787402 -0.0629921 -0.00787402 -0.0157480 -0.0157480 -0.00787402 -0.00787402 -0.0157480
4259.01 0.0708661 0.0787402 0.00000 -0.0157480 -0.00787402 -0.00787402 0.00000 0.0314961
4259.01 0.0393701 -0.0787402 -0.00787402 0.00000 0.00000 0.00787402 0.0472441 0.0866142
4275.13 -0.0393701 -0.0157480 -0.00787402 -0.00787402 0.00000 -0.00787402 -0.0157480 -0.0314961
4275.13 -0.0236220 0.0236220 0.00000 0.00000 0.00000 0.00000 0.00000 0.00787402
4289.43 0.0787402 0.0157480 0.00000 -0.0157480 -0.00787402 -0.00787402 0.00787402 0.0314961
4289.43 -0.0472441 0.00000 0.00000 0.00000 0.00000 -0.00787402 0.0157480 0.0314961
4297.10 -0.0472441 -0.0236220 -0.00787402 -0.0157480 -0.0236220 -0.0157480 -0.0157480 -0.0472441
4297.10 0.0314961 0.00000 0.00000 0.00787402 -0.00787402 -0.0157480 0.00787402 0.0157480
4310.18 -0.00787402 0.0157480 0.0314961 0.0157480 0.00787402 0.0157480 0.00000 0.0314961
4310.18 0.00787402 0.00000 -0.0236220 -0.00787402 -0.0314961 0.00000 0.00000 0.00000
4326.94 0.0393701 0.0393701 -0.00787402 -0.00787402 -0.0157480 -0.00787402 0.0157480 0.0472441
4326.94 -0.0157480 -0.0314961 -0.00787402 -0.00787402 -0.00787402 0.00787402 -0.00787402 0.0236220
4334.41 -0.0157480 -0.00787402 -0.0236220 0.00000 -0.0157480 -0.0236220 -0.0157480 -0.0472441
4334.41 -0.00787402 -0.0629921 0.00000 -0.00787402 0.00787402 -0.00787402 -0.0157480 0.00787402
4349.42 -0.0787402 -0.0236220 -0.00787402 -0.0157480 -0.00787402 0.00000 0.00000 -0.00787402
4349.42 0.125984 0.0157480 -0.00787402 -0.00787402 -0.00787402 0.00787402 0.0314961 0.0944882
4357.11 -0.0708661 -0.0157480 -0.0393701 -0.0157480 -0.0236220 -0.00787402 -0.0314961 -0.0157480
4357.11 -0.0236220 0.0472441 -0.00787402 -0.00787402 -0.00787402 0.00000 -0.0157480 -0.0866142
4371.88 -0.00787402 -0.0314961 -0.00787402 0.0157480 -0.00787402 -0.0157480 0.00000 -0.0236220
4371.88 -0.0393701 0.00000 0.00787402 0.00000 0.00000 -0.0236220 -0.0157480 -0.0157480
4379.34 -0.0157480 -0.0393701 -0.0157480 -0.00787402 0.00787402 -0.00787402 -0.00787402 0.0157480
4379.34 0.0314961 -0.0157480 -0.00787402 -0.00787402 0.00000 -0.00787402 0.0157480 0.0551181
4401.95 0.0314961 0.00000 0.00000 0.00000 -0.0157480 0.00000 0.00000 0.0157480
4401.95 -0.0236220 0.0157480 -0.00787402 -0.00787402 -0.0157480 -0.00787402 -0.00787402 -0.0157480
4416.92 0.0629921 0.00000 0.0157480 -0.00787402 -0.0157480 -0.00787402 0.0236220 0.0314961
4416.92 -0.228346 -0.0708661 -0.0236220 -0.0157480 -0.0157480 -0.0157480 -0.0629921 -0.125984
4424.59 0.0629921 0.0314961 0.00787402 -0.0157480 0.00000 -0.00787402 -0.0236220 -0.0314961
4424.59 -0.157480 -0.0629921 -0.0157480 -0.0157480 0.00000 -0.0236220 0.00000 0.00000
4439.48 -0.00787402 -0.00787402 0.00000 -0.00787402 -0.00787402 0.00000 -0.00787402 -0.0314961
4439.48 0.0236220 0.00787402 0.00787402 0.00000 -0.0157480 -0.00787402 -0.0157480 -0.00787402
4454.45 0.0787402 0.0314961 0.00787402 0.00000 0.00000 0.00000 0.00000 0.00787402
4454.45 0.0393701 -0.0551181 -0.0157480 -0.00787402 0.00000 -0.0157480 -0.0314961 -0.0551181
4469.45 -0.188976 -0.0393701 -0.0157480 -0.0157480 -0.00787402 0.00000 0.00787402 -0.0236220
4469.45 0.0157480 0.0157480 -0.0157480 0.00000 -0.0157480 0.00000 -0.0157480 -0.0236220
4477.34 -0.00787402 0.00787402 0.00000 0.00000 0.00000 -0.0157480 0.0157480 0.0551181
4477.34 0.0787402 0.0472441 0.0157480 -0.0157480 0.00000 0.00000 0.00000 0.0236220
4499.51 0.00787402 -0.0157480 -0.00787402 -0.00787402 -0.00787402 0.00787402 -0.0157480 -0.0472441
4499.51 -0.0314961 -0.0157480 0.00000 -0.00787402 -0.0157480 -0.0157480 -0.00787402 0.00000
4506.88 -0.0314961 -0.0236220 -0.0236220 0.00000 0.00000 -0.00787402 -0.0157480 -0.00787402
4506.88 -0.00787402 -0.0157480 0.00000 0.00000 0.00000 -0.00787402 -0.0157480 0.00787402
4521.92 -0.110236 -0.0314961 -0.0157480 -0.00787402 -0.0236220 -0.0157480 -0.0157480 -0.0551181
4521.92 0.0708661 -0.0157480 0.00787402 0.00787402 -0.00787402 0.00000 0.00787402 0.00000
4536.93 -0.0551181 -0.0236220 -0.0236220 -0.0157480 -0.00787402 -0.00787402 0.00000 0.00000
4536.93 0.0629921 0.0629921 0.00000 -0.00787402 -0.0157480 -0.00787402 0.0314961 0.0787402
4544.53 -0.0157480 -0.0157480 0.00000 -0.00787402 0.00000 -0.0157480 -0.0157480 -0.0314961
4544.53 -0.0393701 0.00787402 -0.0157480 -0.00787402 0.00000 -0.00787402 -0.0157480 0.00000
4551.98 0.0629921 0.0157480 0.00787402 -0.00787402 0.00000 -0.0157480 0.00000 0.00000
4551.98 -0.0472441 -0.0393701 0.00000 0.00000 0.00000 0.00000 0.00787402 0.0157480
4557.84 -0.0236220 -0.00787402 -0.00787402 -0.00787402 -0.00787402 0.00787402 -0.00787402 -0.0393701
4557.84 0.00787402 0.0236220 0.00000 0.00000 0.00000 -0.00787402 0.00787402 0.0236220
4574.34 0.0314961 0.0314961 -0.0157480 -0.0314961 -0.0157480 -0.0157480 -0.0157480 0.00000
4574.34 0.00787402 -0.0314961 0.00000 -0.0157480 -0.0236220 -0.0157480 -0.0157480 -0.0708661
4590.11 -0.0393701 -0.00787402 -0.0236220 0.00000 0.00000 -0.0236220 -0.0157480 -0.0314961
4590.11 0.0314961 0.0236220 0.00000 0.00787402 0.00000 0.00000 0.00787402 0.0157480
4596.90 -0.0787402 -0.0629921 -0.0236220 0.00000 0.00000 0.00787402 0.0157480 0.0157480
4596.90 0.00000 0.00000 -0.0157480 -0.00787402 -0.0157480 -0.00787402 0.00000 0.00000
4610.21 0.00787402 0.00787402 0.00000 -0.00787402 -0.00787402 -0.00787402 -0.0157480 -0.0393701
4610.21 0.0236220 0.00000 0.00000 -0.00787402 -0.00787402 -0.00787402 0.00000 0.0236220
4619.40 0.0314961 -0.0236220 0.00000 -0.0157480 0.00000 -0.00787402 -0.00787402 -0.00787402
4619.40 -0.0314961 0.0236220 0.00000 -0.0157480 -0.0157480 0.00000 0.00787402 0.00000
4634.43 0.00787402 0.0314961 0.00000 -0.00787402 -0.00787402 -0.0157480 -0.0236220 -0.0314961
4634.43 -0.141732 -0.0472441 -0.0157480 -0.00787402 -0.00787402 -0.0157480 -0.0236220 -0.110236
4649.41 0.0708661 0.0551181 0.00000 -0.00787402 0.00000 -0.00787402 0.00787402 0.0472441
4649.41 0.0157480 -0.00787402 0.00787402 -0.00787402 -0.00787402 -0.00787402 0.0157480 0.0314961
4656.52 -0.0314961 -0.0157480 0.00000 0.00000 0.00000 0.00000 0.0157480 0.0314961
4656.52 -0.0472441 -0.0551181 -0.0157480 0.00000 -0.00787402 0.00787402 -0.0157480 0.00000
4679.50 0.00000 0.00787402 -0.0157480 -0.00787402 0.00000 0.00000 -0.00787402 -0.0472441
4679.50 -0.0236220 0.00000 -0.0236220 -0.00787402 -0.0314961 -0.0157480 -0.0236220 -0.0236220
4687.08 0.0236220 0.0157480 -0.00787402 0.00000 -0.0157480 -0.0157480 -0.0157480 0.00000
4687.08 0.0157480 0.00000 -0.0157480 -0.0157480 -0.00787402 -0.0157480 0.0157480 0.0393701
4701.78 0.00787402 -0.00787402 0.00000 -0.00787402 -0.00787402 -0.00787402 -0.00787402 -0.0157480
4701.78 0.00000 -0.0236220 -0.0236220 0.00000 0.00000 0.00000 0.00000 -0.00787402
4716.91 -0.0236220 -0.0236220 -0.0157480 -0.0236220 -0.00787402 -0.0236220 0.00787402 0.0393701
4716.91 0.0314961 0.00000 -0.0157480 -0.0157480 -0.0157480 -0.00787402 0.0157480 0.00000
4724.91 -0.0551181 -0.0314961 -0.00787402 0.00000 -0.0236220 0.00000 -0.0236220 -0.0393701
4724.91 -0.0236220 0.00000 -0.00787402 0.00000 -0.00787402 -0.0157480 -0.0314961 -0.0393701
4739.82 0.0157480 -0.00787402 0.00787402 -0.0157480 0.00000 0.00000 0.00787402 0.0314961
4739.82 0.00787402 0.0236220 0.00787402 -0.00787402 -0.00787402 -0.00787402 0.0157480 0.0314961
4753.55 0.00000 0.00000 -0.00787402 0.00000 0.00787402 0.00000 0.00000 -0.0157480
4753.55 -0.0393701 -0.0629921 -0.00787402 -0.00787402 -0.00787402 0.00000 -0.00787402 -0.00787402
4769.38 0.118110 0.102362 -0.00787402 -0.0157480 -0.0157480 -0.00787402 0.0157480 0.0472441
4769.38 -0.157480 -0.0472441 -0.0236220 -0.0157480 -0.00787402 -0.00787402 -0.0236220 -0.118110
4777.40 0.00000 -0.00787402 -0.00787402 0.00787402 -0.0157480 0.00000 -0.00787402 0.0236220
4777.40 0.0472441 0.00787402 0.00787402 -0.0157480 -0.0157480 -0.00787402 0.0236220 0.0708661
4791.95 0.0157480 -0.0157480 0.00000 0.00000 -0.0157480 0.00787402 -0.0314961 -0.0708661
4791.95 -0.0629921 -0.0314961 -0.00787402 -0.0157480 0.00787402 0.00000 0.00000 0.00000
4799.40 -0.00787402 -0.0157480 -0.0157480 0.00000 -0.00787402 -0.0157480 -0.0157480 -0.0314961
4799.40 0.0236220 0.00787402 -0.0157480 -0.00787402 0.00000 0.00000 -0.00787402 -0.00787402
4812.49 -0.0236220 -0.0236220 0.00000 -0.00787402 -0.00787402 -0.0157480 -0.00787402 -0.0236220
4814.49 0.0236220 0.0236220 0.00787402 0.00787402 -0.0157480 0.00000 0.00000 0.0314961
4827.76 -0.0944882 -0.0393701 -0.00787402 -0.0157480 0.00000 -0.0157480 -0.00787402 -0.0472441
4827.76 0.0866142 0.0157480 0.00000 0.00000 -0.00787402 0.00000 0.00000 0.0629921
4836.71 0.0236220 0.00000 0.00000 -0.0157480 -0.0314961 -0.0236220 -0.0472441 -0.0708661
4836.71 0.00000 0.0157480 -0.00787402 -0.00787402 -0.00787402 -0.0157480 0.00000 -0.0157480
4851.84 0.0157480 -0.0393701 -0.00787402 -0.00787402 -0.0157480 -0.0157480 0.00000 -0.00787402
4851.84 -0.0236220 0.00787402 -0.00787402 0.00787402 0.00000 0.00000 0.0236220 0.0236220
4860.11 0.0314961 -0.0236220 0.00000 -0.00787402 0.00000 -0.00787402 0.00787402 0.0393701
4860.11 0.0314961 0.0393701 0.00000 -0.00787402 -0.0157480 0.00000 -0.0236220 -0.0314961
4875.03 -0.00787402 0.00787402 0.00000 -0.00787402 -0.00787402 -0.00787402 0.00787402 0.0157480
4875.03 -0.0157480 -0.0157480 -0.0157480 0.00000 0.00787402 -0.0157480 -0.00787402 -0.00787402
4890.23 -0.0472441 -0.00787402 -0.00787402 -0.00787402 -0.0157480 0.00000 -0.0157480 -0.0157480
4890.23 0.0551181 -0.00787402 -0.00787402 -0.0157480 0.00000 -0.0157480 -0.00787402 0.0157480
4897.10 -0.0472441 -0.0157480 -0.0157480 0.0157480 0.00787402 -0.00787402 0.0236220 0.0314961
4897.10 0.0629921 0.0236220 -0.00787402 -0.0157480 -0.00787402 -0.0314961 -0.0157480 -0.00787402
4910.91 -0.0236220 0.0236220 -0.00787402 -0.00787402 -0.0236220 0.00000 -0.0472441 -0.0314961
4910.91 0.0551181 0.0236220 -0.00787402 0.00000 -0.0157480 -0.00787402 -0.0157480 -0.00787402
4919.78 -0.118110 -0.0708661 -0.0157480 0.00000 0.00000 0.00000 0.00787402 -0.0314961
4919.78 0.00000 -0.0236220 -0.0157480 -0.00787402 0.00787402 0.00000 0.0236220 0.0472441
4934.12 0.0944882 0.0393701 0.00000 -0.0157480 0.00787402 0.00787402 0.00787402 0.0393701
4934.12 -0.102362 -0.0629921 -0.00787402 0.00000 -0.0157480 -0.0157480 -0.00787402 -0.0393701
4949.30 -0.00787402 0.00000 -0.0157480 -0.0236220 -0.0157480 -0.0236220 0.0157480 0.00787402
4949.30 -0.0472441 -0.00787402 -0.0157480 -0.0157480 -0.00787402 0.00000 -0.0314961 -0.0314961
4957.38 -0.0157480 -0.0157480 -0.00787402 -0.00787402 -0.0157480 -0.0236220 -0.0236220 -0.0629921
4957.38 -0.0157480 -0.0314961 -0.00787402 0.00000 -0.00787402 0.00000 0.0157480 0.0472441
4971.89 0.0787402 0.110236 0.00000 -0.00787402 -0.00787402 0.00000 0.0157480 0.00787402
4971.89 -0.0393701 -0.102362 0.00000 0.00000 0.00000 -0.00787402 -0.0236220 0.00000
4979.45 0.102362 0.0551181 0.00787402 0.00787402 -0.00787402 -0.00787402 -0.00787402 0.00000
4979.45 -0.0787402 -0.00787402 -0.00787402 0.00787402 0.00000 -0.00787402 -0.00787402 -0.0472441
5001.75 -0.00787402 -0.00787402 -0.00787402 -0.0157480 -0.00787402 -0.0157480 -0.00787402 -0.0472441
5001.75 -0.00787402 -0.0236220 -0.00787402 -0.0157480 -0.00787402 0.00000 0.00000 0.0157480
5017.29 0.0236220 -0.0157480 0.00787402 -0.0157480 0.00000 0.00000 -0.00787402 -0.0314961
5017.29 -0.0787402 0.00787402 -0.00787402 -0.0157480 -0.0157480 -0.0157480 0.00000 -0.0236220
5024.77 -0.0708661 -0.0629921 -0.0157480 -0.00787402 -0.00787402 0.00000 0.00000 -0.00787402
5024.77 0.0314961 0.00787402 -0.0157480 -0.00787402 -0.00787402 0.00000 -0.0314961 -0.0314961
5039.52 -0.0393701 -0.0236220 -0.0236220 0.00000 0.00000 0.00000 0.00000 0.0157480
5039.52 0.00000 -0.00787402 0.00000 -0.0157480 0.00000 -0.00787402 0.0236220 0.0314961
5054.33 -0.0629921 -0.0314961 0.00000 -0.00787402 0.00000 -0.0236220 -0.00787402 -0.0157480
5054.33 0.0629921 0.00787402 -0.00787402 0.00000 -0.00787402 0.00000 0.00000 0.00000
5069.40 -0.118110 -0.0551181 -0.0236220 -0.00787402 -0.0236220 -0.00787402 0.0157480 0.0314961
5069.40 0.0472441 0.0236220 0.00000 -0.00787402 -0.0157480 0.00000 0.00000 0.00787402
5077.02 0.0157480 0.00000 -0.0157480 0.00000 -0.0157480 0.00000 -0.0236220 -0.00787402
5077.02 -0.00787402 0.00000 -0.0157480 -0.00787402 -0.00787402 -0.0236220 -0.0157480 -0.0314961
5099.38 0.00787402 -0.0314961 -0.00787402 0.00000 -0.0157480 0.00000 0.00000 -0.00787402
5099.38 -0.0393701 -0.0393701 -0.0157480 -0.00787402 -0.00787402 -0.00787402 0.0157480 0.0157480
5107.95 0.00787402 0.0236220 -0.00787402 -0.00787402 -0.0157480 0.00000 -0.00787402 -0.0236220
5107.95 0.0629921 -0.0236220 0.00000 0.00000 -0.00787402 0.00787402 0.00000 0.0157480
5121.92 -0.0314961 -0.0236220 0.00000 0.00000 -0.00787402 0.00787402 0.0236220 0.0393701
5121.92 0.0629921 0.0236220 -0.0157480 -0.0157480 -0.00787402 -0.00787402 -0.0157480 -0.0944882
5136.82 0.0157480 0.0236220 0.00000 0.00000 0.00000 -0.0157480 0.00000 -0.0314961
5136.82 0.00000 0.0157480 0.00000 -0.00787402 -0.0236220 -0.00787402 0.00000 0.0314961
5151.91 -0.0472441 -0.0314961 -0.00787402 0.00000 0.00000 -0.00787402 0.0157480 -0.0314961
5151.91 -0.0157480 0.00787402 -0.0236220 0.00000 0.00000 -0.0157480 -0.0236220 0.00000
5166.88 0.00787402 -0.0236220 -0.00787402 -0.00787402 -0.0157480 -0.0157480 -0.0157480 0.0236220
5166.88 -0.0236220 -0.00787402 -0.00787402 0.00000 0.00000 -0.00787402 -0.00787402 0.0157480
5181.93 0.0472441 0.00787402 -0.00787402 0.00000 0.00000 -0.00787402 -0.00787402 0.00000
5181.93 -0.118110 -0.0393701 -0.0157480 0.00000 -0.0157480 0.00000 -0.0236220 -0.00787402
5196.96 0.0393701 -0.00787402 0.00787402 -0.00787402 -0.00787402 0.00000 0.00000 0.0551181
5196.96 0.00000 -0.0157480 -0.0157480 0.00787402 0.00787402 0.00000 -0.0157480 -0.0787402
5204.43 0.0157480 0.00787402 -0.0157480 -0.00787402 0.00000 -0.00787402 0.00000 0.0157480
5204.43 -0.0472441 -0.0157480 -0.00787402 -0.00787402 0.00000 -0.0236220 0.00000 0.0157480
5219.39 0.00000 0.0236220 -0.0157480 -0.00787402 0.00000 0.00000 -0.0157480 0.00787402
5219.39 -0.0236220 -0.00787402 -0.00787402 -0.00787402 0.00000 0.00000 0.00000 0.00787402
5234.35 -0.102362 0.0314961 0.00787402 0.00787402 -0.00787402 0.00787402 0.0157480 -0.0314961
5234.35 0.00787402 0.00000 -0.00787402 0.00000 -0.00787402 -0.00787402 -0.0314961 0.00000
5249.43 -0.0472441 -0.0157480 0.00000 -0.00787402 -0.0157480 -0.0157480 -0.0236220 -0.0472441
5249.43 0.0236220 0.00787402 0.00787402 -0.00787402 0.00000 -0.00787402 0.00000 0.00787402
5256.88 0.0472441 0.00787402 -0.0157480 0.00000 0.00000 0.0157480 0.0236220 0.0708661
5256.88 -0.00787402 0.00787402 0.00000 -0.00787402 -0.00787402 -0.00787402 -0.00787402 -0.0708661
5272.17 0.00000 -0.0314961 0.00000 0.00000 0.00000 0.00787402 0.00787402 0.0157480
5272.17 -0.0157480 0.00787402 -0.0157480 0.00000 -0.00787402 -0.00787402 0.0157480 0.0236220
5279.67 0.0236220 0.00000 0.00000 0.00000 -0.0157480 -0.00787402 -0.0157480 -0.0236220
5279.67 -0.0314961 -0.00787402 0.00000 0.00000 0.00000 -0.00787402 -0.00787402 -0.0236220
5294.13 -0.0236220 -0.0236220 -0.0236220 -0.00787402 0.00000 -0.00787402 -0.00787402 -0.00787402
5294.13 0.0314961 0.0236220 -0.00787402 0.00000 -0.00787402 0.00000 -0.0157480 -0.00787402
5302.17 -0.0787402 -0.0393701 0.00000 -0.0157480 0.00000 -0.0157480 -0.0157480 -0.0236220
5302.17 0.133858 0.0393701 -0.00787402 -0.0157480 -0.00787402 0.00000 0.00787402 0.0472441
5324.30 0.0236220 -0.0157480 -0.0157480 -0.00787402 -0.0157480 -0.00787402 -0.0157480 -0.0157480
5324.30 -0.0157480 -0.0236220 -0.00787402 0.00787402 0.00000 -0.00787402 -0.0236220 -0.0157480
5339.68 0.0551181 0.0157480 -0.00787402 0.00000 0.00000 0.00000 0.0236220 0.0708661
5339.68 -0.00787402 0.0314961 -0.00787402 -0.00787402 -0.00787402 -0.00787402 -0.00787402 -0.0629921
5346.96 -0.00787402 -0.0314961 -0.0157480 -0.00787402 -0.0157480 -0.00787402 -0.0393701 -0.0551181
5346.96 -0.0787402 -0.0472441 -0.00787402 -0.00787402 -0.0236220 -0.0157480 -0.00787402 0.00000
5361.96 0.0393701 -0.0551181 0.00787402 0.00000 -0.00787402 -0.00787402 0.00787402 0.00000
5361.96 0.0236220 0.0393701 -0.00787402 -0.0157480 0.00000 -0.0157480 0.00000 0.0472441
5384.36 0.00787402 0.00000 0.00000 -0.00787402 0.00787402 0.00787402 0.0157480 0.0314961
5384.36 0.00000 0.00000 0.00000 0.00000 0.00787402 -0.00787402 0.00787402 0.0157480
5399.47 -0.0236220 -0.0236220 0.00787402 0.00787402 0.00000 -0.00787402 0.00000 -0.0157480
5399.47 0.0236220 0.00000 -0.0157480 -0.00787402 -0.00787402 -0.0157480 -0.0236220 -0.0708661
5409.15 -0.0551181 -0.0236220 0.00000 -0.00787402 -0.00787402 0.00000 -0.0157480 0.00787402
5409.15 0.0551181 0.0157480 -0.00787402 -0.0157480 0.0157480 0.00000 0.0157480 0.00000
5427.55 -0.0314961 -0.0629921 -0.00787402 0.00000 0.00000 -0.00787402 -0.0157480 0.00000
5427.55 -0.0314961 0.0236220 -0.00787402 -0.0157480 0.00000 0.00000 0.00000 0.0157480
5436.84 0.0236220 0.0236220 -0.00787402 -0.0157480 -0.0236220 -0.0157480 0.00000 -0.00787402
5436.84 0.00787402 0.00000 0.00000 0.00000 -0.0157480 -0.00787402 0.00787402 0.00000
5444.83 -0.0944882 -0.0472441 -0.0157480 -0.00787402 -0.00787402 0.00787402 -0.0314961 -0.0629921
5444.83 -0.102362 -0.0472441 -0.00787402 0.0157480 -0.0157480 0.00000 -0.0236220 -0.0157480
5459.39 0.00787402 0.00000 0.00000 -0.00787402 -0.00787402 -0.00787402 -0.00787402 -0.0157480
5459.39 0.00787402 -0.00787402 0.00000 -0.00787402 -0.00787402 -0.0157480 0.00000 0.0157480
5464.37 0.0314961 0.0236220 0.00000 -0.0236220 0.00787402 -0.0236220 0.00787402 0.00000
5464.37 0.0157480 0.00787402 0.00000 -0.00787402 -0.0157480 0.00787402 0.00787402 0.0393701
5474.87 -0.0236220 -0.0157480 -0.0236220 -0.00787402 -0.0157480 -0.0157480 -0.0157480 -0.0629921
5474.87 0.00000 0.00787402 0.00787402 -0.00787402 -0.00787402 -0.0236220 -0.0314961 -0.0472441
5481.95 0.00000 0.00787402 0.00000 0.00787402 0.0157480 0.00787402 0.00000 0.00787402
5481.95 -0.0472441 -0.0393701 -0.0157480 -0.0157480 0.00000 -0.00787402 -0.00787402 -0.0157480
5496.92 0.00787402 -0.0472441 -0.0157480 0.00000 -0.0157480 -0.00787402 0.00000 -0.0236220
5496.92 -0.0866142 0.00787402 -0.00787402 0.00000 -0.00787402 -0.00787402 -0.00787402 -0.0314961
5511.93 0.0787402 0.0314961 0.00000 0.00000 0.00000 0.00787402 0.0236220 0.0629921
5511.93 -0.0236220 -0.0236220 -0.00787402 0.00787402 -0.00787402 -0.00787402 0.0157480 0.00787402
5519.36 -0.0157480 -0.0236220 -0.0236220 0.00000 -0.00787402 -0.0236220 -0.0236220 -0.0314961
5519.36 0.0314961 0.0157480 -0.0157480 -0.00787402 -0.00787402 0.00000 0.00787402 -0.00787402
5534.38 -0.0787402 -0.0236220 -0.00787402 0.00000 -0.00787402 0.00000 -0.0157480 -0.0708661
5534.38 -0.0314961 -0.0157480 -0.00787402 -0.00787402 0.00787402 0.00000 0.00000 0.0314961
5542.31 0.0157480 0.00000 0.00000 -0.00787402 -0.00787402 -0.00787402 0.0157480 0.0314961
5542.31 0.0708661 0.0236220 0.00000 -0.00787402 0.00000 0.00000 0.00000 0.00787402
5557.46 0.00000 0.00787402 -0.00787402 0.00000 -0.00787402 0.00000 -0.0157480 -0.0157480
5557.46 0.0236220 0.0314961 -0.00787402 -0.0236220 -0.00787402 -0.0157480 -0.00787402 -0.0314961
5571.94 -0.00787402 -0.0157480 -0.00787402 0.00000 0.00000 0.00787402 0.0157480 0.0472441
5571.94 -0.00787402 0.00787402 0.00000 -0.00787402 0.00000 0.00787402 -0.0157480 -0.0629921
5579.48 -0.0236220 -0.0236220 -0.00787402 0.00000 -0.00787402 -0.00787402 -0.0157480 -0.0157480
5579.48 -0.0393701 -0.0393701 -0.00787402 0.00000 0.00787402 0.00000 -0.00787402 -0.0314961
5594.41 -0.00787402 -0.0157480 0.00000 0.00000 -0.00787402 0.00000 0.00787402 0.00787402
5594.41 0.0629921 0.0393701 0.00000 -0.00787402 -0.00787402 -0.00787402 0.00787402 0.0472441
5602.00 -0.0314961 -0.0393701 -0.00787402 -0.00787402 0.00000 0.00000 0.00000 -0.00787402
5602.00 0.0236220 0.00000 -0.00787402 -0.0157480 0.00000 -0.00787402 -0.0236220 -0.0236220
5616.79 0.0157480 0.0472441 0.00000 -0.00787402 -0.00787402 -0.00787402 0.00000 -0.00787402
5616.79 -0.0157480 -0.0787402 -0.0236220 -0.00787402 -0.0157480 0.00000 0.00000 0.00787402
5629.92 0.0472441 0.0551181 -0.00787402 -0.0157480 0.00787402 0.00787402 0.0157480 0.0629921
5629.92 -0.0314961 -0.0236220 -0.0157480 -0.0236220 -0.0236220 -0.00787402 -0.0157480 -0.0393701
5639.33 -0.00787402 -0.00787402 -0.00787402 -0.0157480 -0.0157480 -0.0236220 -0.00787402 -0.00787402
5639.33 -0.0236220 0.00000 0.00787402 0.00000 -0.0157480 -0.0157480 -0.0157480 -0.0236220
5661.95 -0.0866142 -0.0472441 -0.00787402 -0.0157480 -0.00787402 -0.0157480 -0.0236220 -0.0314961
5661.95 0.0157480 -0.0157480 0.00000 -0.00787402 -0.00787402 0.00787402 0.00787402 0.0393701
5669.36 0.00787402 0.0157480 -0.00787402 0.00000 0.00787402 0.00000 0.00787402 0.00000
5669.36 -0.0551181 -0.0236220 0.00000 0.00000 -0.00787402 -0.0157480 -0.00787402 -0.0157480
5684.34 -0.00787402 0.00787402 -0.00787402 -0.0157480 -0.00787402 -0.00787402 -0.00787402 0.00000
5684.34 0.0157480 0.00000 0.00000 -0.00787402 -0.00787402 -0.0157480 -0.00787402 -0.00787402
5707.46 -0.00787402 0.0236220 0.00000 0.00787402 0.00000 -0.00787402 -0.0157480 -0.0314961
5707.46 -0.0236220 -0.0157480 -0.0236220 0.00787402 0.00000 -0.00787402 0.00000 0.00787402
5714.35 0.00787402 -0.0157480 0.00000 0.00000 0.00000 0.00000 0.00000 -0.00787402
5714.35 0.0551181 0.0314961 -0.0157480 -0.00787402 0.00000 0.00000 0.00000 -0.00787402
5729.28 0.00787402 -0.00787402 0.00000 -0.00787402 0.00000 -0.00787402 -0.0236220 -0.0708661
5729.28 -0.0157480 0.0314961 0.00787402 -0.0157480 -0.0157480 -0.0157480 -0.0157480 0.00000
5744.76 -0.00787402 0.00000 0.00000 -0.0236220 -0.0157480 -0.0236220 0.00787402 0.0314961
5744.76 0.00787402 0.00787402 -0.00787402 0.00787402 0.00000 -0.00787402 0.00787402 0.0157480
5759.48 0.0472441 0.0393701 -0.00787402 0.00000 -0.00787402 -0.00787402 -0.0157480 -0.0236220
5759.48 0.00787402 -0.0472441 -0.00787402 -0.0157480 -0.00787402 -0.00787402 -0.00787402 -0.0236220
5774.90 0.0393701 0.0472441 0.00000 -0.00787402 -0.00787402 0.00787402 0.0236220 0.0393701
5774.90 0.00787402 -0.00787402 0.0157480 0.00000 0.00000 0.0236220 0.0393701 0.0708661
5781.58 0.00000 -0.0236220 0.00000 0.00000 -0.0157480 -0.0157480 -0.0236220 -0.0472441
5781.58 -0.0157480 -0.0236220 0.00000 -0.0157480 0.00000 0.00000 -0.00787402 -0.0157480
5796.98 0.00000 -0.0314961 0.00000 0.00000 -0.00787402 0.00787402 0.00000 0.0314961
5796.98 -0.0472441 -0.0236220 -0.0157480 0.00787402 -0.0157480 -0.00787402 -0.00787402 0.00000
5819.35 -0.0236220 -0.0157480 -0.0157480 -0.00787402 -0.00787402 0.00000 -0.0157480 -0.0472441
5819.35 0.00787402 -0.00787402 -0.00787402 -0.0157480 -0.00787402 -0.00787402 0.00787402 0.00000
5834.54 0.00000 0.00000 -0.00787402 -0.00787402 0.00787402 0.00787402 0.00787402 0.0393701
5834.54 -0.0393701 0.00000 -0.00787402 0.00787402 -0.00787402 0.00000 -0.00787402 -0.0236220
5848.56 -0.0314961 -0.0866142 -0.0157480 -0.00787402 0.00000 -0.0157480 -0.0314961 -0.0314961
5848.56 0.00000 0.0157480 -0.0157480 -0.00787402 -0.0236220 0.00000 -0.00787402 -0.00787402
5856.96 0.0157480 0.0314961 0.00000 0.00000 -0.0157480 -0.0157480 -0.00787402 -0.0236220
5856.96 -0.0787402 -0.0236220 -0.0157480 -0.00787402 -0.0157480 -0.00787402 0.00000 -0.00787402
5871.97 0.00787402 -0.0157480 -0.0157480 -0.00787402 -0.0236220 -0.00787402 -0.0157480 -0.00787402
5871.97 0.0157480 -0.0157480 0.00000 -0.00787402 -0.00787402 0.00000 -0.00787402 -0.00787402
5879.50 -0.0866142 -0.0157480 -0.00787402 0.00000 0.00000 0.00787402 -0.0157480 -0.0472441
5879.50 0.149606 0.0393701 0.00787402 -0.0157480 0.00000 -0.00787402 -0.00787402 0.00000
5894.36 -0.0787402 -0.0393701 -0.00787402 -0.00787402 -0.00787402 -0.0157480 -0.0236220 -0.0157480
5894.36 0.00000 -0.0157480 -0.00787402 0.00000 0.00000 -0.00787402 0.0157480 0.0236220
5901.69 -0.0787402 -0.0157480 -0.0236220 0.00000 -0.00787402 -0.00787402 0.00000 0.00000
5901.69 0.0236220 -0.0157480 0.0157480 0.00000 -0.00787402 0.00000 0.00000 0.0314961
5916.91 0.00787402 -0.0472441 -0.0157480 -0.00787402 0.00787402 -0.0157480 0.00000 0.0236220
5916.91 -0.0393701 0.0236220 0.00000 0.00000 0.00000 0.00000 0.00787402 0.00787402
5930.61 -0.0393701 0.00000 0.00787402 -0.00787402 -0.0157480 -0.0157480 -0.0236220 -0.0944882
5930.61 -0.00787402 -0.0157480 -0.0236220 -0.0157480 -0.0236220 -0.0236220 -0.0393701 -0.0236220
5939.66 -0.0866142 -0.0393701 -0.0157480 -0.0157480 0.00000 -0.0157480 0.00000 0.00787402
5939.66 0.0236220 0.00000 0.00000 -0.00787402 0.00000 -0.00787402 0.00787402 0.0393701
5961.52 0.0393701 0.0314961 0.00787402 -0.00787402 -0.00787402 0.00000 0.0157480 0.0236220
5961.52 0.00000 -0.0472441 0.00000 0.00000 0.00787402 0.00000 0.00000 -0.00787402
5969.07 0.0472441 0.0472441 0.0157480 -0.00787402 -0.00787402 0.00000 0.00000 0.0393701
5969.07 0.0314961 0.0236220 0.00000 0.00787402 -0.0157480 -0.0236220 -0.00787402 -0.00787402
5992.13 -0.0314961 -0.0314961 -0.0236220 0.00787402 -0.00787402 -0.0157480 0.00787402 0.00000
5992.13 -0.0236220 -0.0157480 -0.0157480 -0.0157480 -0.00787402 0.00000 -0.00787402 -0.0236220
6012.34 0.0236220 0.0157480 0.00000 0.00000 0.00000 0.00787402 -0.00787402 -0.0157480
6012.34 -0.0314961 0.00000 0.00000 -0.00787402 -0.0157480 -0.00787402 -0.00787402 0.00787402
6029.25 0.0314961 0.00000 0.00000 -0.00787402 0.00000 0.00000 0.00787402 -0.0157480
6029.25 -0.118110 -0.0787402 -0.0157480 -0.0314961 -0.0157480 -0.00787402 -0.00787402 -0.0314961
6044.99 0.102362 0.0314961 0.00000 -0.0236220 0.00000 0.00787402 0.00000 0.00000
6044.99 -0.141732 -0.102362 -0.0157480 0.00000 -0.00787402 -0.00787402 0.00000 0.00000
6056.79 0.0236220 0.0393701 -0.0157480 0.00787402 0.00000 -0.0157480 -0.0157480 -0.0236220
6056.79 0.0629921 0.0314961 -0.00787402 0.00000 0.00000 0.00000 0.00000 -0.00787402
6066.03 -0.0236220 -0.0157480 -0.00787402 -0.00787402 -0.00787402 -0.00787402 -0.0314961 -0.0708661
6066.03 0.0472441 0.0157480 -0.00787402 -0.00787402 0.00000 0.00000 0.00000 0.0157480
6089.05 -0.0472441 -0.0236220 -0.00787402 -0.0157480 -0.00787402 0.00000 -0.0157480 0.0157480
6089.05 -0.0157480 -0.0314961 0.00000 0.00000 -0.00787402 -0.00787402 -0.0157480 -0.0472441
6104.36 -0.0236220 -0.0236220 -0.00787402 -0.00787402 -0.00787402 0.00000 0.00000 0.00787402
6104.36 0.00000 0.00787402 0.00000 -0.00787402 -0.00787402 -0.00787402 -0.0157480 -0.0314961
6119.41 0.0236220 -0.0157480 -0.00787402 -0.00787402 0.00000 -0.0157480 -0.0157480 -0.00787402
6119.41 -0.0314961 -0.0236220 0.00000 -0.00787402 0.00000 0.00000 -0.0157480 -0.00787402
6124.41 0.00787402 0.00000 -0.00787402 0.00787402 -0.00787402 -0.00787402 0.00787402 0.0157480
6124.41 0.0157480 0.0157480 -0.0157480 0.00000 0.00000 -0.0236220 -0.0157480 0.00000
6141.87 -0.0157480 0.00000 -0.00787402 -0.0236220 -0.0157480 -0.00787402 -0.00787402 -0.00787402
6141.87 0.0787402 0.0314961 -0.00787402 -0.0236220 -0.00787402 -0.00787402 0.00000 0.0708661
6157.37 0.0551181 -0.0236220 -0.0157480 -0.0157480 -0.00787402 -0.00787402 0.00787402 0.00787402
6157.37 0.0629921 0.0551181 0.0157480 0.00000 0.00000 0.00000 0.00787402 0.0157480
6171.91 0.00787402 0.00000 -0.00787402 -0.00787402 -0.00787402 0.00000 -0.00787402 0.00000
6171.91 -0.00787402 0.0157480 -0.0157480 -0.0157480 -0.0157480 0.00000 0.00787402 0.00000
6179.42 -0.0236220 -0.0236220 -0.00787402 -0.00787402 -0.0157480 -0.0157480 -0.0157480 -0.0314961
6179.42 -0.0157480 -0.00787402 -0.0157480 -0.00787402 -0.00787402 -0.0157480 -0.00787402 -0.0157480
6201.84 -0.0787402 -0.0472441 0.00000 0.00000 0.00000 -0.0157480 -0.0157480 -0.0236220
6201.84 0.0236220 -0.0157480 0.00000 0.00000 -0.0157480 0.00000 0.00000 0.00000
6209.55 -0.0393701 -0.00787402 0.00787402 -0.00787402 0.00000 -0.00787402 -0.0157480 -0.0236220
6209.55 -0.0236220 -0.00787402 -0.0236220 0.00787402 0.00000 0.00000 0.00000 -0.00787402
6226.01 0.00787402 -0.00787402 -0.00787402 0.00787402 0.00000 -0.00787402 -0.00787402 0.0236220
6226.01 0.0157480 0.0236220 0.00000 -0.00787402 0.00787402 0.00787402 -0.0236220 -0.0472441
6239.34 0.0314961 0.00787402 -0.00787402 -0.00787402 -0.00787402 0.00000 0.00000 0.0551181
6239.34 -0.0787402 -0.0393701 0.00000 -0.00787402 -0.00787402 -0.00787402 -0.0393701 -0.133858
6276.92 -0.0787402 -0.0393701 -0.00787402 -0.00787402 -0.00787402 -0.00787402 0.00787402 0.0157480
6276.92 -0.00787402 -0.0157480 -0.0236220 -0.0157480 -0.00787402 0.00000 -0.00787402 0.00000
6284.41 -0.0236220 0.00787402 -0.0157480 0.00000 -0.0157480 -0.0157480 -0.00787402 -0.0157480
6284.41 -0.0236220 -0.0236220 -0.0157480 -0.00787402 -0.00787402 -0.00787402 0.00787402 0.0157480
6307.46 0.0236220 0.00787402 0.00000 -0.0157480 0.00787402 -0.00787402 -0.00787402 0.00787402
6307.46 -0.0157480 0.00000 0.00000 -0.00787402 0.00000 -0.0157480 0.00787402 -0.0157480
6321.99 0.00000 0.00000 -0.00787402 0.00000 -0.00787402 0.00787402 0.0157480 0.00787402
6321.99 -0.0314961 -0.0393701 -0.0157480 -0.00787402 -0.0157480 -0.0157480 0.00000 0.00000
6329.50 0.0472441 0.0157480 0.00000 -0.00787402 -0.00787402 -0.00787402 -0.0157480 -0.0157480
6329.50 -0.125984 -0.0472441 0.00000 0.00787402 -0.0157480 -0.0236220 -0.00787402 -0.00787402
6336.98 0.00000 -0.00787402 -0.00787402 -0.0157480 0.00000 -0.0157480 -0.0236220 -0.0629921
6336.98 -0.00787402 0.00000 0.00000 0.00000 -0.00787402 0.00000 0.00787402 0.0157480
6349.30 0.00000 -0.0314961 -0.0314961 -0.00787402 -0.00787402 -0.0157480 -0.0157480 0.00787402
6352.14 -0.0157480 -0.0236220 -0.0157480 0.00787402 0.00000 0.00000 -0.0236220 0.00787402
6359.85 -0.0314961 -0.00787402 0.00000 -0.00787402 -0.0157480 0.00000 -0.0157480 0.00787402
6359.85 -0.0157480 -0.0157480 -0.0157480 -0.00787402 0.00000 0.00000 0.00000 -0.0314961
6366.80 -0.0472441 -0.0551181 0.00000 -0.00787402 -0.0157480 -0.0393701 -0.0314961 -0.0472441
6366.80 -0.0944882 -0.0472441 -0.0236220 -0.0157480 0.00000 -0.0236220 -0.0157480 0.00000
6381.50 -0.0236220 -0.0157480 -0.0157480 -0.0236220 0.00000 0.00787402 0.00787402 0.00000
6381.50 0.0866142 0.0708661 0.00000 -0.00787402 -0.00787402 0.00000 0.00787402 0.0472441
6404.34 0.0393701 0.0157480 0.00787402 -0.00787402 0.00000 -0.00787402 0.0157480 0.0157480
6404.34 0.00787402 0.0157480 0.00000 -0.0157480 0.00000 -0.00787402 0.00000 -0.0157480
6411.81 -0.0393701 -0.0472441 -0.00787402 -0.00787402 0.00787402 0.00787402 0.00787402 -0.00787402
6411.81 0.0551181 -0.00787402 0.00000 0.00787402 -0.0157480 -0.00787402 -0.00787402 -0.00787402
6442.27 0.102362 0.0629921 0.00787402 0.00000 0.00000 0.00787402 0.0236220 0.0551181
6442.27 -0.110236 -0.0157480 -0.0157480 -0.0157480 0.00000 0.00000 -0.00787402 -0.0787402
6462.53 0.0551181 0.00787402 0.00000 0.00787402 -0.00787402 0.00000 0.00787402 0.0314961
6462.53 0.102362 0.0472441 0.00000 0.00000 -0.00787402 0.00000 0.0157480 0.0629921
6501.90 0.0157480 0.00787402 0.00000 0.00000 -0.0236220 -0.0314961 0.00000 -0.00787402
6501.90 -0.0157480 0.00787402 0.00000 0.00000 0.00000 -0.0157480 0.00000 -0.0157480
6509.49 -0.0708661 -0.00787402 -0.0157480 0.00000 0.00000 -0.00787402 -0.00787402 -0.0157480
6509.49 -0.00787402 -0.0393701 -0.0157480 0.00000 -0.00787402 0.00787402 0.00000 -0.00787402
6515.80 0.0472441 0.0629921 0.00000 -0.00787402 -0.00787402 -0.0236220 -0.0157480 0.0157480
6515.80 0.0472441 -0.0236220 -0.0157480 0.00000 0.00000 -0.0157480 -0.0157480 -0.00787402
6531.93 -0.0472441 -0.0472441 -0.00787402 0.00000 0.00000 0.00000 -0.0236220 -0.118110
6531.93 0.0708661 0.0157480 -0.00787402 -0.0157480 0.00000 0.00000 0.00000 0.0314961
6546.32 -0.0236220 -0.00787402 -0.00787402 -0.0157480 0.00000 -0.0314961 0.00000 0.0157480
6546.32 -0.0157480 -0.00787402 0.00000 -0.00787402 -0.0157480 -0.0236220 -0.0314961 -0.0393701
6562.25 -0.00787402 -0.0393701 0.00000 -0.0157480 0.00000 0.00000 -0.0157480 0.00000
6562.25 0.0708661 0.0472441 0.00787402 -0.00787402 0.00787402 -0.0157480 -0.0157480 0.00000
6569.41 0.0157480 0.0157480 -0.0157480 0.0157480 -0.00787402 -0.00787402 -0.00787402 0.0157480
6569.41 -0.110236 -0.0944882 -0.00787402 0.00000 -0.00787402 0.00787402 0.0157480 0.00000
6582.40 0.0236220 -0.0157480 0.00000 -0.0157480 0.00000 0.00000 0.00787402 0.0157480
6584.44 -0.110236 -0.0393701 -0.0157480 -0.0236220 -0.0157480 -0.0157480 -0.0236220 -0.0472441
6599.40 0.0393701 0.0157480 0.00000 0.00787402 -0.0236220 -0.00787402 0.00787402 0.0551181
6599.40 -0.102362 -0.0393701 0.00000 -0.00787402 -0.00787402 0.00787402 0.00000 0.0157480
6621.83 -0.0314961 -0.0236220 0.00000 0.00000 -0.00787402 0.00000 0.00000 -0.0314961
6621.83 0.0236220 0.0157480 -0.00787402 -0.0157480 -0.00787402 -0.00787402 -0.0393701 -0.0551181
6629.08 -0.0629921 -0.0787402 -0.0157480 0.00000 0.00000 -0.00787402 -0.0157480 -0.0314961
6629.08 0.0314961 0.0314961 0.00000 -0.0157480 -0.00787402 -0.00787402 0.00787402 0.0157480
6644.07 -0.0314961 -0.0314961 -0.00787402 0.00000 0.00000 -0.00787402 -0.00787402 0.00787402
6644.07 0.0472441 0.00000 0.00000 0.00000 0.00787402 0.0157480 0.0157480 0.0157480
6651.93 -0.0393701 -0.00787402 0.0157480 -0.00787402 -0.0157480 0.0157480 -0.00787402 -0.0236220
6651.93 0.0236220 0.00787402 0.00000 -0.0157480 0.00000 0.00000 -0.0157480 -0.0157480
6666.76 -0.0708661 -0.0236220 -0.0236220 -0.00787402 -0.00787402 -0.00787402 -0.0236220 -0.0314961
6666.76 0.0708661 0.0236220 0.00787402 0.00787402 0.00000 -0.0157480 0.00787402 0.0236220
6680.14 -0.0551181 -0.0708661 -0.00787402 -0.0157480 0.00000 -0.00787402 -0.0236220 -0.0866142
6680.14 -0.0393701 0.00000 -0.00787402 -0.00787402 -0.0157480 -0.0157480 -0.00787402 -0.0157480
6696.98 0.0708661 0.00787402 -0.0157480 -0.0157480 -0.00787402 -0.0157480 0.0157480 0.0236220
6696.98 -0.118110 -0.0629921 -0.0157480 0.00787402 -0.00787402 -0.0157480 -0.00787402 -0.0236220
6704.32 0.00000 0.00787402 0.00000 0.00000 0.00000 -0.00787402 -0.00787402 0.00000
6704.32 0.0629921 0.0157480 0.00000 0.00000 0.00000 -0.00787402 0.00000 -0.0157480
6726.98 0.0708661 0.0314961 0.00000 -0.00787402 -0.00787402 0.00787402 0.0236220 0.0472441
6726.98 0.0157480 0.0314961 -0.00787402 0.00787402 0.00000 0.00787402 0.00787402 0.0236220
6749.34 -0.0551181 -0.0314961 0.00787402 0.00787402 -0.0157480 -0.0157480 -0.0393701 -0.0629921
6749.34 -0.0314961 -0.0314961 -0.00787402 -0.0157480 -0.00787402 -0.00787402 -0.0236220 -0.0472441
6756.83 0.0551181 0.0157480 0.00787402 -0.0157480 -0.0157480 -0.0157480 -0.0157480 0.00787402
6756.83 -0.0472441 -0.0236220 -0.0157480 -0.00787402 -0.0157480 0.00000 0.00000 -0.00787402
6779.38 0.0236220 0.0157480 -0.00787402 -0.00787402 -0.00787402 -0.00787402 0.0157480 0.0472441
6779.38 0.0629921 0.00000 0.00000 -0.0157480 -0.00787402 0.00000 0.00787402 0.0236220
6793.93 -0.0393701 -0.00787402 -0.0157480 0.00000 -0.00787402 -0.00787402 -0.00787402 -0.00787402
6793.93 0.0551181 0.00000 0.00000 -0.00787402 -0.0157480 -0.00787402 0.00787402 0.0314961
6809.50 -0.0472441 -0.00787402 -0.0157480 0.00787402 -0.00787402 0.00000 -0.0157480 -0.0157480
6809.50 0.0551181 0.00787402 -0.0157480 0.00000 0.00000 0.00000 -0.0236220 -0.0314961
6831.93 -0.0314961 -0.00787402 0.00000 0.00787402 -0.00787402 0.00787402 0.00787402 -0.00787402
6831.93 0.0866142 0.0551181 0.00000 -0.00787402 -0.0157480 -0.0157480 -0.0393701 -0.0551181
6846.76 -0.00787402 -0.00787402 -0.00787402 -0.00787402 0.00000 0.00787402 0.0157480 0.0551181
6846.76 -0.0629921 -0.0551181 0.00000 -0.0157480 -0.00787402 0.00000 -0.0236220 -0.0314961
6861.29 0.0787402 0.0393701 -0.0157480 0.00000 -0.0157480 -0.00787402 0.00000 0.00000
6861.29 0.0393701 0.0157480 0.00000 -0.00787402 -0.00787402 0.00000 0.00787402 0.00000
6869.36 -0.0866142 -0.0236220 0.00000 -0.0157480 0.00000 -0.0157480 -0.0157480 -0.0393701
6869.36 -0.0157480 0.00787402 0.00787402 -0.00787402 -0.00787402 -0.00787402 0.0157480 0.00000
6892.16 0.0472441 0.0708661 0.00000 0.00787402 -0.00787402 0.00000 -0.0157480 -0.0157480
6892.16 -0.102362 -0.0787402 -0.0236220 -0.00787402 -0.00787402 0.00000 -0.0157480 -0.0157480
6906.98 -0.125984 -0.0708661 -0.0314961 -0.00787402 -0.00787402 0.00000 -0.00787402 -0.00787402
6906.98 0.0236220 0.0157480 0.00000 -0.00787402 -0.00787402 -0.00787402 -0.00787402 0.0157480
6921.81 0.00787402 0.0157480 0.00787402 -0.00787402 0.00000 -0.00787402 -0.0157480 -0.0629921
6921.81 0.0236220 0.00000 -0.00787402 0.00000 0.00000 -0.00787402 -0.0157480 -0.0157480
6936.94 0.0157480 -0.0236220 0.00000 -0.00787402 -0.0157480 -0.0157480 0.00000 -0.0314961
6936.94 -0.0236220 0.00787402 0.00787402 -0.0157480 -0.0236220 0.00000 -0.0157480 0.00787402
6942.34 0.0236220 -0.0157480 -0.0157480 -0.00787402 -0.00787402 -0.00787402 0.00000 0.00787402
6942.34 -0.00787402 0.00787402 0.00000 -0.00787402 -0.00787402 -0.00787402 0.00000 -0.0157480
6959.61 -0.0393701 -0.0551181 -0.0236220 0.00000 -0.00787402 -0.0157480 -0.00787402 -0.0157480
6959.61 -0.0393701 -0.0157480 -0.0314961 -0.00787402 0.00787402 -0.0236220 -0.0157480 -0.0314961
6965.79 -0.0314961 -0.0551181 -0.0236220 -0.00787402 -0.0236220 -0.0157480 0.00000 0.0236220
6965.79 -0.141732 -0.0629921 -0.0157480 -0.0157480 0.00000 -0.0157480 -0.0157480 -0.102362
6974.17 0.0314961 0.0236220 -0.00787402 -0.00787402 -0.00787402 0.00000 -0.00787402 0.00787402
6974.17 -0.0314961 0.00787402 0.00000 0.00787402 0.00787402 -0.0157480 0.00000 0.00000
6989.01 0.0236220 0.0236220 -0.00787402 -0.00787402 -0.00787402 0.00787402 -0.0157480 -0.0236220
6989.01 0.0472441 0.0157480 -0.0157480 0.00000 0.00787402 0.00787402 0.00787402 0.0314961
6996.95 -0.0708661 -0.0708661 -0.0236220 0.00000 -0.0157480 0.00000 -0.00787402 -0.00787402
6996.95 -0.0472441 -0.0472441 -0.00787402 0.0157480 0.00000 0.00000 -0.0157480 -0.0393701
7011.02 0.0944882 0.0708661 -0.00787402 -0.0157480 -0.00787402 -0.0314961 -0.0157480 0.00000
7011.02 0.0236220 0.00000 0.00000 0.00000 0.00787402 -0.00787402 0.00787402 0.0236220
7026.59 -0.00787402 -0.00787402 -0.00787402 -0.0157480 0.00000 -0.00787402 -0.0236220 -0.0393701
7026.59 0.0708661 0.0236220 -0.00787402 0.00000 -0.00787402 -0.00787402 0.00787402 0.00000
7034.37 -0.188976 -0.0629921 -0.00787402 -0.00787402 -0.00787402 0.00000 0.00000 0.00000
7034.37 0.0708661 0.00787402 0.00000 -0.0157480 -0.00787402 -0.00787402 0.00000 0.0157480
7049.46 -0.0708661 -0.00787402 -0.00787402 0.00000 -0.00787402 0.00000 0.00000 0.00787402
7049.46 0.00787402 0.0157480 0.00000 0.00000 -0.0157480 -0.00787402 0.00000 -0.00787402
7057.00 0.0629921 0.0393701 -0.0157480 -0.00787402 -0.0157480 -0.0157480 -0.0157480 -0.00787402
7057.00 -0.0551181 -0.0472441 -0.00787402 -0.00787402 0.00000 -0.00787402 -0.0236220 -0.0314961
7071.29 -0.0393701 -0.0393701 0.00000 0.00000 0.00000 0.00000 -0.0157480 -0.0157480
7071.29 0.0314961 0.00787402 -0.00787402 -0.00787402 -0.00787402 -0.0157480 -0.00787402 0.0393701
7086.85 -0.0157480 0.0157480 -0.0157480 -0.00787402 -0.00787402 0.00000 -0.00787402 0.00000
7086.85 0.0393701 0.00000 -0.00787402 -0.00787402 0.00787402 0.00000 -0.00787402 0.00000
7094.52 -0.181102 -0.0944882 -0.0236220 0.00000 -0.0157480 -0.0157480 0.00787402 -0.0314961
7094.52 0.0472441 0.0472441 -0.0157480 -0.00787402 0.00000 -0.00787402 0.00000 -0.00787402
7116.71 0.00787402 -0.0157480 -0.00787402 -0.00787402 -0.00787402 -0.00787402 0.0157480 0.0314961
7116.71 -0.0551181 -0.0472441 -0.00787402 0.00000 -0.0157480 -0.00787402 -0.0393701 -0.0944882
7124.77 0.125984 0.0629921 0.00787402 -0.00787402 -0.00787402 0.00000 0.0236220 0.0472441
7124.77 -0.125984 -0.0236220 -0.0157480 0.00000 -0.00787402 0.00000 -0.0157480 -0.0393701
7144.92 0.00000 0.00787402 0.00787402 -0.00787402 -0.00787402 -0.00787402 -0.0157480 -0.00787402
7144.92 0.0236220 0.0157480 -0.00787402 -0.00787402 -0.00787402 -0.00787402 0.00787402 0.0314961
7161.98 0.0551181 0.0236220 0.00000 0.00000 0.00000 0.00000 -0.00787402 0.00000
7161.98 0.0157480 -0.0157480 -0.00787402 -0.0157480 -0.00787402 -0.00787402 -0.00787402 0.00000
7177.34 -0.0314961 -0.0314961 -0.0157480 -0.00787402 -0.00787402 -0.00787402 -0.00787402 -0.0393701
7177.34 -0.00787402 -0.00787402 -0.00787402 -0.0236220 -0.00787402 0.00000 0.00000 0.0157480
7196.95 0.0314961 0.00787402 -0.0157480 0.00000 -0.00787402 -0.0314961 -0.00787402 -0.00787402
7196.95 -0.0314961 -0.00787402 0.00000 -0.00787402 0.00000 0.00787402 0.0157480 0.00000
7212.44 -0.118110 -0.0393701 -0.0236220 -0.00787402 -0.00787402 0.00787402 0.00000 -0.0236220
7212.44 -0.0393701 -0.0472441 -0.00787402 -0.00787402 -0.0157480 -0.00787402 -0.00787402 -0.00787402
7221.34 -0.00787402 0.00787402 0.00000 -0.00787402 -0.00787402 -0.00787402 -0.0157480 -0.00787402
7221.34 0.00787402 0.00787402 -0.00787402 -0.00787402 -0.00787402 -0.0236220 0.00000 0.00787402
7236.80 0.0393701 0.00787402 -0.00787402 0.00787402 0.00000 0.00000 -0.00787402 0.00000
7236.80 -0.0314961 -0.0314961 -0.0157480 0.00787402 0.00000 -0.00787402 -0.0157480 -0.00787402
7244.46 0.0314961 0.00787402 0.00000 -0.0157480 -0.0157480 0.00000 0.00000 -0.00787402
7244.46 -0.0314961 0.00000 -0.0157480 0.00787402 -0.00787402 0.00000 -0.00787402 -0.0157480
7251.90 0.0236220 0.00000 -0.00787402 -0.00787402 -0.00787402 0.00787402 0.00000 -0.00787402
7251.90 -0.0157480 -0.00787402 -0.00787402 0.00000 -0.00787402 -0.00787402 -0.00787402 -0.00787402
7266.90 0.00000 0.00000 0.00000 0.00000 -0.0236220 0.00000 -0.00787402 -0.00787402
7266.90 0.00000 0.00000 0.0157480 0.00787402 0.00000 0.00787402 -0.00787402 -0.0157480
7274.64 0.00000 -0.00787402 -0.00787402 -0.00787402 -0.0157480 -0.0157480 -0.00787402 -0.0157480
7274.64 -0.00787402 -0.0157480 -0.0314961 -0.0314961 0.00000 -0.00787402 -0.00787402 -0.00787402
7289.35 0.00787402 0.00000 0.00787402 0.00787402 0.00787402 0.00787402 0.00000 0.00000
7289.35 -0.00787402 -0.0157480 0.00000 -0.0236220 -0.00787402 -0.0157480 -0.0236220 -0.00787402
7296.76 0.00000 0.00000 -0.0157480 0.0236220 0.0236220 0.00000 -0.00787402 0.00000
7296.76 -0.00787402 -0.00787402 -0.0393701 -0.0472441 -0.0157480 0.00787402 0.00000 -0.0157480
7302.52 0.0157480 0.00000 0.00000 -0.00787402 0.00000 0.00000 -0.0236220 -0.0236220
7302.52 -0.00787402 -0.00787402 -0.0157480 -0.00787402 -0.0157480 0.00000 -0.0157480 -0.00787402
7312.22 -0.00787402 0.00000 0.00787402 0.00000 -0.0157480 -0.0157480 0.00000 -0.00787402
7312.22 -0.00787402 -0.0157480 -0.0157480 0.00787402 0.00787402 -0.00787402 0.00000 -0.0157480
7325.65 0.00000 0.00000 -0.0236220 -0.00787402 -0.00787402 0.00787402 -0.0157480 -0.00787402
7325.65 -0.00787402 0.00000 0.00000 -0.00787402 -0.0157480 0.00000 0.00000 0.00787402
7333.51 -0.00787402 0.00000 0.00787402 0.00000 0.00000 -0.00787402 -0.00787402 -0.00787402
7333.51 -0.00787402 -0.0157480 -0.0236220 -0.0157480 -0.00787402 -0.0157480 -0.0157480 -0.00787402
7356.81 -0.00787402 0.00000 -0.0236220 -0.0236220 -0.00787402 -0.0157480 -0.0157480 -0.0157480
7356.81 -0.00787402 -0.00787402 -0.00787402 0.00000 0.00000 -0.00787402 0.00000 0.00000
7369.95 0.00787402 0.00000 0.00000 -0.0314961 -0.00787402 -0.00787402 0.00000 -0.00787402
7369.95 0.00000 0.00000 0.0314961 0.0157480 0.00000 0.00000 -0.0157480 0.00787402
7386.84 0.00000 0.00000 0.00787402 0.00787402 -0.00787402 -0.0157480 -0.00787402 -0.0157480
7386.84 -0.00787402 -0.00787402 -0.0314961 -0.0157480 0.00000 0.00787402 0.00787402 -0.0157480
7409.67 0.00787402 -0.00787402 0.00787402 0.00000 -0.00787402 -0.00787402 -0.0157480 0.00000
7409.67 0.00000 0.00787402 0.0236220 0.00787402 -0.0236220 -0.0236220 -0.00787402 0.00000
7424.72 0.0157480 -0.00787402 0.00787402 0.00787402 0.00000 0.00000 0.00787402 0.00000
7424.72 0.00000 -0.00787402 -0.0157480 -0.00787402 0.00787402 0.00787402 0.00787402 0.00000
7446.72 0.00000 -0.0157480 -0.0236220 -0.0157480 -0.00787402 -0.0157480 0.00787402 0.00000
7446.72 -0.0157480 -0.00787402 0.00787402 0.00000 -0.00787402 -0.00787402 -0.00787402 -0.00787402
7454.35 0.00000 -0.00787402 0.00000 -0.00787402 -0.0157480 -0.00787402 0.00787402 -0.00787402
7454.35 0.00000 -0.00787402 -0.0157480 -0.0157480 -0.00787402 0.00000 0.00000 0.00787402
7461.84 0.00000 -0.0157480 -0.00787402 0.00000 -0.00787402 -0.00787402 -0.00787402 0.00000
7461.84 -0.0236220 -0.00787402 -0.00787402 0.00787402 -0.00787402 -0.0157480 -0.0629921 -0.0236220
7476.49 -0.0157480 0.00000 -0.00787402 -0.00787402 0.00000 -0.00787402 -0.0314961 0.00000
7476.49 0.00787402 0.00787402 0.00000 -0.00787402 0.00787402 0.0314961 0.157480 0.0157480
7484.30 -0.0157480 -0.0157480 0.00000 0.00787402 -0.00787402 0.00000 0.0236220 -0.0236220
7484.30 0.00787402 -0.0157480 0.00000 0.00787402 0.00000 0.0157480 0.0236220 0.0236220
7491.76 -0.0157480 -0.00787402 -0.00787402 0.00000 0.00000 0.00787402 -0.00787402 0.0157480
7491.76 -0.00787402 0.00787402 -0.0157480 -0.00787402 -0.0157480 -0.0236220 -0.0866142 -0.0157480
7521.25 0.00787402 0.00787402 0.00000 0.00000 -0.0314961 -0.0236220 -0.0157480 -0.0157480
7521.25 0.00000 -0.00787402 -0.00787402 -0.00787402 -0.00787402 -0.00787402 -0.0472441 -0.0236220
7536.33 0.00000 -0.0157480 -0.0157480 -0.0157480 -0.0157480 -0.0157480 -0.0157480 0.00000
7536.33 -0.00787402 -0.0157480 -0.00787402 0.0157480 -0.0157480 -0.00787402 -0.00787402 -0.0157480
7564.63 0.0157480 -0.0236220 -0.0157480 -0.0236220 -0.0157480 -0.0157480 -0.0314961 -0.0157480
7564.63 -0.00787402 -0.0157480 0.00000 0.00000 -0.0157480 0.00000 0.0314961 -0.00787402
7581.19 -0.00787402 0.00000 -0.00787402 0.00000 0.00000 -0.0157480 -0.0472441 0.00000
7581.19 0.00000 0.00000 -0.0157480 -0.0157480 0.00000 0.00000 0.0157480 -0.00787402
7589.50 -0.0157480 -0.0157480 -0.0157480 0.00000 0.00000 0.00000 0.0236220 -0.00787402
7589.50 -0.00787402 -0.00787402 -0.0157480 -0.00787402 -0.0236220 -0.0236220 -0.0393701 0.00000
7604.32 -0.00787402 -0.00787402 0.0157480 0.00000 -0.00787402 -0.00787402 -0.00787402 0.00000
7604.32 -0.0236220 -0.00787402 -0.0236220 -0.00787402 0.00000 -0.0157480 -0.0314961 -0.00787402
7611.81 -0.00787402 0.00000 -0.00787402 -0.00787402 -0.00787402 -0.0157480 0.00787402 0.00000
7611.81 -0.00787402 -0.0157480 0.00787402 0.00787402 0.00000 0.00000 0.00000 -0.0157480
7642.15 -0.00787402 -0.00787402 -0.0157480 -0.00787402 0.00000 0.00787402 0.00787402 0.00000
7642.15 -0.00787402 0.00000 0.00000 0.00000 0.00787402 -0.00787402 -0.00787402 -0.00787402
7649.20 0.00000 -0.00787402 0.00000 0.00787402 0.00787402 0.00787402 -0.0157480 0.00787402
7649.20 0.00787402 0.00787402 0.00000 -0.0157480 0.00000 0.00000 -0.00787402 -0.0236220
7656.74 -0.0157480 -0.00787402 -0.0157480 -0.00787402 -0.00787402 0.00787402 0.00787402 0.00000
7656.74 -0.00787402 -0.00787402 -0.00787402 -0.0157480 0.00000 -0.00787402 -0.00787402 -0.0157480
7680.27 0.00787402 -0.0157480 0.00000 -0.0157480 0.00000 -0.00787402 -0.00787402 -0.00787402
7680.27 -0.0157480 -0.00787402 -0.00787402 -0.00787402 0.00000 -0.0157480 -0.0157480 -0.0157480
7685.20 0.00000 -0.00787402 -0.00787402 -0.00787402 -0.0157480 -0.00787402 -0.00787402 -0.00787402
7685.20 -0.0236220 0.00000 0.00787402 -0.00787402 -0.00787402 0.00000 0.0157480 -0.00787402
7701.47 0.00000 -0.0157480 0.00000 -0.00787402 0.00787402 0.00787402 -0.0157480 -0.0157480
7701.47 0.00000 0.00787402 -0.0314961 -0.00787402 -0.00787402 -0.00787402 -0.00787402 -0.00787402
7716.54 0.00000 0.00000 0.00000 0.00000 -0.0236220 -0.00787402 -0.0157480 -0.0157480
7716.54 -0.00787402 -0.00787402 -0.00787402 -0.0157480 -0.0236220 0.00787402 0.00000 -0.00787402
7724.98 -0.00787402 -0.00787402 -0.00787402 0.00000 -0.0157480 -0.0157480 0.00000 0.00787402
7724.98 -0.00787402 -0.00787402 0.00000 0.00000 -0.00787402 -0.0157480 -0.0157480 -0.00787402
7732.21 0.00000 -0.0157480 -0.0157480 -0.00787402 -0.0157480 0.00787402 -0.00787402 -0.00787402
7732.21 0.00000 0.00000 -0.0157480 0.00000 -0.0157480 0.00000 -0.00787402 -0.00787402
7752.75 0.00000 -0.00787402 -0.00787402 -0.00787402 0.00000 -0.00787402 0.00787402 -0.0157480
7752.75 -0.00787402 -0.00787402 -0.0157480 -0.0157480 -0.00787402 0.00000 -0.00787402 0.00000
7761.84 0.00000 0.00000 0.00787402 -0.0157480 -0.00787402 -0.0236220 -0.0157480 -0.00787402
7761.84 0.00000 -0.00787402 -0.00787402 0.00787402 0.00000 -0.00787402 0.00000 0.00787402
7783.92 -0.00787402 0.00787402 -0.0157480 0.00000 -0.0157480 -0.00787402 -0.00787402 -0.0157480
7783.92 0.00000 -0.0157480 0.00000 0.00000 -0.00787402 0.00000 -0.00787402 -0.00787402
7794.06 -0.00787402 -0.00787402 -0.00787402 0.00000 0.00787402 -0.0157480 0.00000 -0.00787402
7794.06 -0.00787402 -0.00787402 0.00000 0.00000 -0.00787402 -0.00787402 0.00000 0.00787402
7798.90 -0.00787402 -0.00787402 0.00787402 -0.0157480 -0.0236220 -0.00787402 0.00787402 0.00787402
7798.90 0.00000 0.00000 0.00000 0.00000 0.00000 -0.00787402 -0.00787402 -0.00787402
7808.43 0.00000 -0.0157480 -0.00787402 -0.00787402 0.00000 -0.0157480 0.00787402 0.00000
7808.43 0.00000 0.00000 0.00000 -0.00787402 0.00000 -0.00787402 -0.00787402 -0.0157480
7815.28 -0.0236220 -0.00787402 -0.00787402 0.00000 0.00000 -0.00787402 0.00787402 0.00787402
7815.28 0.00000 -0.0157480 0.00000 -0.00787402 -0.0157480 0.00000 0.00000 0.00000
7829.47 0.00000 0.00787402 -0.0157480 -0.00787402 0.00000 0.00787402 0.00000 -0.00787402
7829.47 0.00000 -0.00787402 -0.0157480 -0.00787402 0.00787402 -0.0157480 -0.0157480 0.00000
7836.53 -0.00787402 -0.00787402 0.00000 -0.0236220 -0.00787402 -0.00787402 -0.0157480 -0.00787402
7836.53 0.00787402 -0.00787402 -0.00787402 -0.0157480 0.00000 -0.00787402 -0.00787402 0.00000
7851.67 -0.0236220 -0.00787402 0.00000 -0.0157480 -0.0157480 -0.00787402 -0.00787402 -0.0157480
7851.67 -0.00787402 -0.0236220 0.00000 -0.0236220 -0.00787402 0.00000 -0.00787402 -0.0157480
7875.43 0.00000 -0.00787402 -0.0157480 0.00000 0.00000 -0.00787402 0.00000 -0.00787402
7875.43 -0.00787402 -0.0157480 -0.0157480 0.00787402 -0.0236220 -0.00787402 -0.00787402 0.00000
7882.07 0.00000 -0.00787402 -0.00787402 0.00000 0.00787402 -0.00787402 -0.00787402 -0.00787402
7882.07 0.00000 -0.00787402 0.00000 -0.0157480 -0.00787402 0.00000 0.00000 -0.0236220
7904.40 0.00000 0.00000 0.00787402 0.00000 -0.00787402 0.00000 -0.0157480 -0.00787402
7904.40 -0.00787402 -0.00787402 0.00787402 -0.0157480 -0.00787402 -0.00787402 -0.0157480 0.00000
7924.97 -0.00787402 -0.00787402 -0.0314961 -0.0157480 -0.0236220 -0.0236220 -0.00787402 0.00000
7924.97 -0.00787402 0.00000 -0.0157480 -0.00787402 0.00000 -0.0157480 -0.00787402 -0.0236220
7949.70 0.00000 -0.00787402 -0.00787402 -0.00787402 -0.00787402 0.00000 -0.0157480 -0.0157480
7949.70 -0.0157480 -0.00787402 0.00000 0.00000 -0.00787402 -0.0157480 -0.00787402 0.00000
7956.87 -0.00787402 0.00000 0.00000 -0.00787402 0.00000 0.00787402 -0.0157480 0.00000
7956.87 -0.00787402 -0.0157480 0.00000 -0.00787402 -0.00787402 0.00000 0.00000 -0.00787402
7964.31 -0.00787402 -0.00787402 0.00000 -0.00787402 0.00000 -0.00787402 -0.00787402 -0.00787402
7964.31 -0.00787402 -0.0157480 0.0157480 -0.00787402 -0.00787402 -0.00787402 0.00000 0.00000
7974.16 0.00787402 -0.00787402 -0.0236220 -0.00787402 0.00000 0.00000 0.00000 -0.0157480
7974.16 -0.00787402 0.00787402 -0.00787402 -0.00787402 -0.00787402 0.00787402 0.00000 0.00787402
7978.01 -0.00787402 0.00000 -0.00787402 0.00787402 -0.0157480 -0.00787402 -0.00787402 0.00000
7978.01 -0.0157480 -0.0157480 -0.0236220 -0.0157480 0.00787402 -0.00787402 0.00000 0.00000
7985.43 0.00000 0.00000 0.00000 -0.00787402 0.00000 -0.00787402 -0.0157480 0.00000
7985.43 -0.00787402 -0.00787402 -0.0157480 -0.00787402 -0.00787402 0.00000 0.00000 0.00000
7994.69 0.00000 -0.00787402 0.00000 0.00000 -0.00787402 -0.00787402 -0.00787402 -0.00787402
7994.69 -0.00787402 -0.00787402 -0.00787402 -0.0157480 0.00000 -0.00787402 -0.0157480 0.00000
8009.79 0.00000 0.00787402 0.00000 0.00000 -0.00787402 -0.00787402 -0.00787402 0.00000
8009.79 0.00787402 0.00787402 0.00787402 -0.00787402 -0.00787402 -0.00787402 -0.0157480 -0.00787402
8016.47 -0.0157480 -0.00787402 -0.0157480 -0.00787402 -0.0157480 0.00000 0.00000 -0.00787402
8016.47 0.00000 -0.00787402 0.00000 -0.00787402 -0.00787402 0.00000 0.00000 -0.00787402
8024.38 0.00000 -0.00787402 0.00000 -0.00787402 0.00000 0.00000 -0.0157480 -0.0157480
8024.38 -0.00787402 -0.0157480 0.00000 0.00000 -0.00787402 0.00787402 -0.00787402 0.00000
8032.00 0.00787402 0.00787402 -0.0157480 -0.0157480 0.00000 -0.0157480 0.00000 -0.00787402
8032.00 -0.0157480 -0.00787402 -0.00787402 0.00000 -0.00787402 0.00000 -0.0236220 0.00000
8056.82 -0.0157480 0.00000 -0.00787402 0.00000 0.00787402 -0.00787402 -0.00787402 -0.00787402
8056.82 -0.00787402 -0.00787402 -0.00787402 -0.00787402 -0.0157480 -0.0157480 -0.00787402 -0.0157480
8059.86 -0.00787402 -0.0157480 -0.00787402 -0.00787402 0.00000 0.00787402 -0.00787402 -0.00787402
8061.87 -0.00787402 0.00787402 -0.0236220 0.00000 -0.0236220 0.00000 -0.00787402 -0.00787402
8083.98 0.00000 -0.00787402 0.00000 -0.00787402 -0.0236220 -0.00787402 -0.0157480 0.00000
8083.98 -0.0157480 -0.0157480 -0.00787402 0.00000 0.00000 -0.00787402 -0.00787402 0.00787402
8092.30 -0.0157480 -0.00787402 0.00787402 -0.00787402 0.00000 -0.00787402 0.00000 0.00000
8092.30 -0.00787402 -0.00787402 0.00787402 -0.0157480 -0.00787402 -0.0314961 -0.00787402 0.00000
8105.63 -0.00787402 -0.00787402 0.00000 -0.0236220 0.00000 0.00000 -0.00787402 -0.00787402
8105.63 0.00000 -0.0157480 -0.00787402 -0.00787402 0.00000 -0.00787402 0.00000 -0.00787402
8121.36 -0.0157480 -0.00787402 -0.0236220 0.00000 -0.0157480 0.00000 0.00000 0.00000
8121.36 -0.00787402 -0.00787402 0.00787402 -0.00787402 -0.0157480 -0.00787402 0.00000 -0.0157480
8136.84 -0.00787402 -0.00787402 0.00000 0.00000 -0.00787402 -0.0157480 -0.0236220 0.00000
8136.84 -0.00787402 -0.0157480 -0.00787402 0.00000 0.00000 -0.00787402 0.00000 -0.00787402
8151.81 -0.00787402 0.00787402 0.00000 0.00000 -0.00787402 0.00000 0.00787402 0.00000
8151.81 -0.00787402 0.00000 -0.00787402 -0.0157480 -0.00787402 -0.0157480 0.00000 0.00000
8160.19 0.00000 0.00000 -0.00787402 0.00787402 -0.00787402 0.00000 -0.00787402 0.00000
8160.19 -0.0157480 -0.00787402 -0.00787402 0.00000 -0.0157480 0.00000 0.00000 -0.00787402
8172.91 -0.00787402 -0.00787402 -0.00787402 -0.00787402 -0.0157480 -0.00787402 -0.00787402 -0.00787402
8172.91 0.00000 0.00787402 -0.00787402 -0.00787402 -0.0157480 -0.0157480 0.00000 0.00000
8184.01 -0.00787402 -0.0157480 -0.00787402 -0.00787402 -0.0157480 -0.0157480 -0.0157480 -0.00787402
8184.01 -0.00787402 0.00787402 0.00000 0.00000 0.00000 -0.00787402 -0.0236220 0.00000
8197.27 -0.00787402 -0.0157480 0.00000 -0.00787402 0.00000 -0.00787402 0.00000 0.00787402
8197.27 -0.0157480 -0.00787402 0.00000 -0.0157480 -0.00787402 -0.0157480 0.00000 -0.0157480
8213.99 -0.0236220 -0.0157480 -0.0157480 0.00000 0.00787402 0.00000 0.00787402 -0.00787402
8213.99 0.00000 -0.00787402 -0.00787402 0.00000 -0.00787402 0.0157480 -0.0236220 0.00000
8219.08 0.0157480 -0.00787402 -0.00787402 -0.00787402 -0.0157480 -0.0157480 0.00000 0.00000
8219.08 -0.00787402 0.00000 -0.0236220 -0.00787402 0.00787402 -0.00787402 -0.00787402 -0.00787402
8227.01 -0.00787402 -0.00787402 -0.0157480 -0.00787402 0.00000 -0.00787402 0.00000 0.00000
8227.01 -0.0157480 0.00000 -0.0157480 -0.00787402 0.00000 -0.00787402 -0.0157480 -0.00787402
8233.85 0.00787402 0.00000 -0.00787402 -0.00787402 -0.00787402 -0.00787402 -0.0157480 -0.00787402
8233.85 0.00787402 -0.0157480 0.00787402 -0.0157480 -0.0157480 0.00000 0.00000 -0.00787402
8250.19 -0.00787402 -0.0157480 0.00000 0.00000 -0.00787402 -0.0157480 -0.00787402 0.00787402
8250.19 0.00000 0.00000 -0.00787402 -0.0157480 0.00000 -0.0157480 0.00000 -0.0157480
8262.55 0.00000 -0.00787402 0.00000 0.00000 -0.0236220 0.00787402 -0.00787402 -0.0157480
8262.55 0.00000 0.00000 -0.00787402 0.00000 -0.00787402 -0.0157480 0.00787402 -0.0157480
8271.99 0.00000 0.00787402 -0.00787402 -0.0157480 0.00000 0.00000 -0.00787402 0.00000
8271.99 0.00000 -0.00787402 -0.00787402 -0.00787402 -0.00787402 0.00000 0.00000 0.00000
8287.00 0.00000 0.00000 0.00000 0.00000 0.00787402 -0.00787402 -0.0157480 0.00000
8287.00 0.00787402 0.00787402 -0.0157480 -0.00787402 -0.00787402 -0.00787402 0.00000 -0.0157480
8301.06 -0.0157480 -0.0157480 0.00000 0.00000 -0.0157480 -0.00787402 -0.00787402 -0.00787402
8301.06 -0.00787402 0.00000 0.00000 0.00787402 0.0157480 -0.00787402 -0.00787402 -0.00787402
8309.82 0.00000 0.00787402 -0.00787402 -0.00787402 0.00000 0.00787402 -0.00787402 -0.00787402
8309.82 -0.00787402 -0.0157480 0.00787402 -0.0157480 -0.00787402 -0.00787402 -0.0157480 0.00000
8331.89 -0.00787402 -0.0157480 0.00000 0.00000 0.00000 0.00787402 0.00000 -0.0157480
8331.89 -0.00787402 0.00000 -0.00787402 -0.00787402 -0.0236220 0.00787402 -0.0157480 0.00000
8339.46 -0.00787402 -0.00787402 -0.00787402 -0.00787402 0.00000 0.00000 0.00000 -0.00787402
8339.46 -0.00787402 -0.00787402 -0.0157480 0.00787402 0.00000 -0.00787402 0.00000 0.00000
8347.29 0.00000 0.00000 -0.00787402 0.00000 0.00000 -0.00787402 -0.0157480 0.00000
8347.29 -0.00787402 -0.0157480 -0.00787402 -0.00787402 -0.00787402 -0.00787402 0.00787402 -0.0157480
8354.14 0.00000 0.0157480 -0.00787402 -0.0157480 -0.00787402 -0.00787402 -0.00787402 -0.0157480
8354.14 -0.00787402 -0.0157480 0.00000 0.00000 0.00000 -0.00787402 -0.00787402 0.00000
8370.23 -0.00787402 -0.00787402 -0.00787402 -0.0157480 0.00000 -0.00787402 -0.00787402 0.00000
8370.23 -0.0157480 0.00000 0.00000 0.00000 0.00000 -0.0157480 -0.00787402 -0.00787402
8384.46 0.00000 0.00000 -0.0157480 0.00000 -0.00787402 -0.0236220 -0.00787402 0.00000
8384.46 -0.00787402 -0.00787402 -0.00787402 -0.0157480 0.00000 -0.00787402 0.00787402 -0.00787402
8392.47 -0.00787402 -0.00787402 -0.00787402 0.00000 -0.00787402 -0.0157480 -0.00787402 -0.00787402
8392.47 -0.00787402 0.00000 -0.00787402 -0.00787402 -0.00787402 -0.00787402 -0.0157480 0.00787402
8407.16 0.00000 0.00000 -0.0157480 -0.00787402 0.00000 -0.0157480 -0.00787402 0.00000
8407.16 0.00000 -0.00787402 -0.00787402 0.00000 -0.0157480 0.00000 -0.00787402 0.00000
8414.44 -0.00787402 -0.0157480 0.00000 0.00000 -0.0157480 -0.00787402 0.00000 -0.0157480
8414.44 -0.00787402 -0.00787402 -0.00787402 -0.00787402 0.00787402 -0.00787402 -0.0157480 -0.00787402
8428.77 -0.00787402 -0.0157480 0.00000 -0.0157480 -0.00787402 0.00787402 -0.00787402 -0.00787402
8428.77 -0.00787402 -0.00787402 -0.00787402 -0.0157480 -0.00787402 0.00000 0.00000 0.00000
8444.47 -0.0157480 -0.00787402 -0.00787402 -0.00787402 -0.00787402 0.00000 0.00000 0.00000
8444.47 -0.00787402 -0.0157480 -0.00787402 -0.00787402 -0.00787402 -0.00787402 0.00000 -0.00787402
8466.66 -0.0236220 -0.0314961 -0.0157480 -0.00787402 0.00000 0.00787402 -0.00787402 0.00787402
8466.66 0.00000 0.00000 -0.0157480 0.00787402 -0.0157480 0.00000 -0.0157480 0.00000
8481.99 -0.0157480 0.00000 0.00000 -0.0157480 -0.0236220 0.00000 -0.0157480 -0.00787402
8481.99 -0.00787402 0.00000 -0.0157480 0.00000 -0.0157480 -0.00787402 -0.0157480 0.00000
8498.26 0.00000 0.00787402 0.00000 0.00000 -0.0157480 -0.0157480 0.00000 -0.00787402
8498.26 -0.00787402 -0.0157480 0.00787402 -0.00787402 0.00000 -0.0157480 -0.00787402 -0.00787402
8530.11 0.00787402 0.00000 0.00787402 -0.00787402 -0.0157480 0.00787402 0.00000 0.00000
8530.11 0.00000 -0.00787402 0.00000 0.00000 -0.0157480 -0.00787402 0.00787402 -0.00787402
8542.30 -0.00787402 -0.00787402 -0.00787402 -0.00787402 -0.00787402 -0.0157480 -0.00787402 -0.00787402
8542.30 -0.0157480 0.00000 -0.0157480 -0.00787402 -0.00787402 -0.00787402 0.00000 -0.00787402
8548.95 0.00000 0.00000 -0.0157480 -0.00787402 0.00000 -0.00787402 -0.0157480 -0.0157480
8548.95 0.00000 -0.00787402 -0.00787402 -0.00787402 -0.0157480 0.00000 -0.00787402 0.00000
8564.07 -0.0157480 -0.00787402 0.00787402 -0.00787402 0.00000 -0.0314961 -0.00787402 -0.00787402
8564.07 0.00000 0.00787402 -0.0157480 -0.00787402 0.00000 -0.00787402 -0.00787402 -0.0157480
8571.88 0.00000 -0.00787402 -0.00787402 -0.0157480 -0.00787402 0.00000 -0.0157480 -0.00787402
8571.88 -0.00787402 0.00000 0.00000 -0.00787402 -0.00787402 -0.0157480 0.00000 -0.00787402
8609.78 -0.00787402 -0.0157480 -0.00787402 0.00000 -0.00787402 -0.00787402 -0.00787402 -0.0157480
8609.78 0.00000 0.00000 0.00000 -0.00787402 0.00000 0.00000 -0.00787402 0.00000
8624.61 -0.00787402 -0.0157480 -0.0157480 -0.00787402 0.00000 -0.00787402 0.00000 -0.00787402
8624.61 -0.0157480 0.00000 -0.00787402 -0.00787402 -0.00787402 -0.0157480 -0.00787402 0.00000
8631.92 0.00000 -0.00787402 -0.0157480 -0.00787402 -0.00787402 0.00787402 0.00787402 -0.00787402
8631.92 -0.0157480 -0.00787402 -0.00787402 -0.00787402 -0.0157480 -0.00787402 0.00000 -0.0157480
8669.93 -0.00787402 -0.0157480 -0.00787402 0.00000 -0.00787402 0.00787402 -0.0157480 -0.0157480
8669.93 0.00787402 0.00000 0.00000 -0.00787402 0.00787402 0.00787402 -0.0157480 0.00000
8677.27 0.00000 0.00000 -0.00787402 -0.00787402 -0.00787402 0.00000 0.00000 0.00000
8677.27 -0.0236220 -0.0157480 0.00000 -0.0157480 -0.00787402 -0.00787402 -0.00787402 -0.00787402
8706.65 -0.00787402 0.00000 -0.00787402 -0.00787402 0.00000 -0.0157480 -0.00787402 -0.00787402
8706.65 0.00000 -0.0157480 -0.00787402 0.00000 0.00000 -0.0157480 0.00000 0.00000
8721.75 -0.00787402 0.00000 0.00000 0.00000 0.00000 0.00000 -0.0236220 -0.0157480
8721.75 0.00000 -0.0157480 -0.0157480 0.00787402 -0.00787402 -0.00787402 -0.00787402 -0.00787402
8735.31 -0.00787402 -0.00787402 -0.00787402 -0.00787402 -0.0157480 0.00787402 0.00000 0.00787402
8735.31 0.00000 -0.00787402 -0.00787402 -0.00787402 -0.00787402 0.00000 0.00000 0.00000
8751.92 0.00787402 -0.00787402 -0.00787402 -0.00787402 0.00000 -0.0157480 0.00000 -0.0157480
8751.92 -0.00787402 -0.00787402 -0.00787402 -0.00787402 -0.00787402 -0.0157480 -0.00787402 -0.00787402
8760.53 -0.00787402 -0.00787402 -0.0157480 -0.0157480 0.00787402 0.00000 -0.0157480 -0.00787402
8760.53 0.00000 0.00000 -0.00787402 -0.0236220 0.00000 -0.0157480 0.00000 0.00000
8788.54 0.00000 -0.00787402 0.00000 0.00787402 -0.00787402 -0.0157480 -0.00787402 -0.00787402
8788.54 0.00000 -0.0157480 0.00000 -0.00787402 -0.0157480 0.00000 -0.00787402 0.00000
8806.74 0.00000 -0.0157480 0.0157480 0.00000 0.00787402 -0.00787402 -0.00787402 -0.00787402
8806.74 -0.0157480 -0.00787402 -0.00787402 0.0157480 0.00787402 -0.00787402 0.00787402 -0.00787402
8834.41 0.00000 0.00000 0.00000 -0.00787402 -0.00787402 0.00000 0.00000 0.00787402
8834.41 -0.00787402 -0.00787402 -0.00787402 0.00000 -0.00787402 -0.00787402 -0.00787402 0.00000
8849.42 -0.00787402 -0.00787402 -0.00787402 -0.00787402 -0.00787402 -0.00787402 -0.0157480 -0.00787402
8849.42 0.00000 -0.00787402 -0.0236220 -0.0157480 -0.00787402 0.00000 -0.0157480 -0.00787402
8886.90 -0.00787402 -0.00787402 0.00787402 0.00000 0.00000 -0.00787402 0.00000 -0.00787402
8886.90 0.00000 -0.00787402 -0.00787402 -0.00787402 -0.0157480 0.00000 -0.00787402 -0.0157480
8901.66 0.00000 -0.00787402 -0.00787402 -0.00787402 -0.00787402 -0.0157480 0.00000 -0.0157480
8901.66 -0.00787402 -0.00787402 0.00000 -0.00787402 -0.00787402 -0.00787402 -0.0157480 -0.00787402
8910.22 -0.00787402 0.00000 -0.0157480 0.00000 0.00000 0.00000 -0.00787402 0.00787402
